Notes - Figure 1 and 2 data
Notes - dNch/deta results have negligable statistical uncertainties
Notes - systematic uncertainties are type B correlated by the PHENIX convention (see text for details)
Notes - event selection percentiles are based on the BBC charge (not multiplicity in the range measured for dNch/deta) -- (see text for details)
 
=========================================
3He+Au at 200 GeV Results
=========================================
Centrality = 0 - 5 percentile
Eta , dNch/deta, Sys. Uncertainty
-2.85 , 29.842 , 3.58104
-2.75 , 28.4983 , 3.4198
-2.65 , 29.2601 , 3.51122
-2.55 , 28.7523 , 3.45028
-2.45 , 29.9327 , 3.59193
-2.35 , 28.6431 , 3.43717
-2.25 , 29.2105 , 3.50526
-2.15 , 28.2475 , 3.3897
-2.05 , 28.062 , 3.36744
-1.95 , 29.1562 , 3.49874
-1.85 , 29.8115 , 3.57737
-1.75 , 29.3974 , 3.52769
-1.65 , 29.9661 , 3.59594
-0.25 , 22.5588 , 2.48147
-0.15 , 22.8473 , 2.5132
-0.05 , 24.0649 , 2.64714
0.05 , 23.0967 , 2.54064
0.15 , 19.8921 , 2.18813
0.25 , 20.926 , 2.30186
1.65 , 18.8273 , 2.05594
1.75 , 18.7299 , 2.04531
1.85 , 18.8201 , 2.05515
1.95 , 17.9416 , 1.95923
2.05 , 17.9259 , 1.9575
2.15 , 17.2909 , 1.88816
2.25 , 16.733 , 1.82724
2.35 , 16.0678 , 1.7546
2.45 , 14.8661 , 1.62338
2.55 , 13.6481 , 1.49037
2.65 , 11.9417 , 1.30404
2.75 , 11.8305 , 1.29189
2.85 , 10.4399 , 1.14004
Centrality = 5 - 10 percentile
Eta , dNch/deta, Sys. Uncertainty
-2.85 , 25.5054 , 3.06065
-2.75 , 25.5197 , 3.06236
-2.65 , 25.0387 , 3.00464
-2.55 , 24.9493 , 2.99392
-2.45 , 24.8512 , 2.98215
-2.35 , 23.9993 , 2.87992
-2.25 , 24.6077 , 2.95293
-2.15 , 24.3739 , 2.92487
-2.05 , 25.7987 , 3.09585
-1.95 , 26.2309 , 3.14771
-1.85 , 26.5632 , 3.18759
-1.75 , 27.6372 , 3.31647
-1.65 , 25.8956 , 3.10747
-0.25 , 21.1867 , 2.33053
-0.15 , 20.5762 , 2.26338
-0.05 , 21.6141 , 2.37755
0.05 , 22.5438 , 2.47981
0.15 , 17.075 , 1.87825
0.25 , 17.3101 , 1.90411
1.65 , 16.0528 , 1.83002
1.75 , 17.0985 , 1.94923
1.85 , 17.7059 , 2.01847
1.95 , 17.3338 , 1.97606
2.05 , 16.3143 , 1.85983
2.15 , 15.9249 , 1.81544
2.25 , 15.7502 , 1.79552
2.35 , 14.5098 , 1.65412
2.45 , 13.9566 , 1.59106
2.55 , 12.8586 , 1.46588
2.65 , 12.3286 , 1.40546
2.75 , 10.691 , 1.21877
2.85 , 10.1046 , 1.15193
Centrality = 10 - 20 percentile
Eta , dNch/deta, Sys. Uncertainty
-2.85 , 23.7256 , 2.84707
-2.75 , 22.9561 , 2.75473
-2.65 , 22.0779 , 2.64935
-2.55 , 21.9454 , 2.63345
-2.45 , 23.2891 , 2.79469
-2.35 , 22.2717 , 2.67261
-2.25 , 22.0267 , 2.64321
-2.15 , 22.7406 , 2.72887
-2.05 , 22.9621 , 2.75545
-1.95 , 23.3096 , 2.79715
-1.85 , 24.2623 , 2.91148
-1.75 , 22.6386 , 2.71664
-1.65 , 22.2322 , 2.66787
-0.25 , 18.181 , 1.99991
-0.15 , 18.6523 , 2.05176
-0.05 , 19.762 , 2.17382
0.05 , 19.6063 , 2.1567
0.15 , 15.3595 , 1.68955
0.25 , 17.0201 , 1.87222
1.65 , 16.1523 , 1.89951
1.75 , 15.4675 , 1.81898
1.85 , 15.8494 , 1.86389
1.95 , 16.2931 , 1.91607
2.05 , 14.9616 , 1.75949
2.15 , 15.1914 , 1.78651
2.25 , 14.2702 , 1.67817
2.35 , 13.0125 , 1.53026
2.45 , 12.8944 , 1.51639
2.55 , 11.7571 , 1.38263
2.65 , 11.3654 , 1.33658
2.75 , 10.4253 , 1.22602
2.85 , 8.76685 , 1.03098
Centrality = 20 - 40 percentile
Eta , dNch/deta, Sys. Uncertainty
-2.85 , 18.9122 , 2.26946
-2.75 , 18.9292 , 2.27151
-2.65 , 18.175 , 2.18099
-2.55 , 17.6723 , 2.12068
-2.45 , 18.0512 , 2.16615
-2.35 , 17.5587 , 2.10705
-2.25 , 17.4669 , 2.09603
-2.15 , 17.6264 , 2.11517
-2.05 , 18.4261 , 2.21113
-1.95 , 18.5025 , 2.2203
-1.85 , 18.7653 , 2.25183
-1.75 , 18.7051 , 2.24462
-1.65 , 18.8027 , 2.25633
-0.25 , 14.7704 , 1.62475
-0.15 , 15.1494 , 1.66643
-0.05 , 16.2209 , 1.7843
0.05 , 16.0311 , 1.76342
0.15 , 12.0648 , 1.32713
0.25 , 13.6195 , 1.49815
1.65 , 12.837 , 1.55585
1.75 , 13.1172 , 1.5898
1.85 , 13.2439 , 1.60516
1.95 , 12.8029 , 1.55171
2.05 , 12.6877 , 1.53774
2.15 , 11.7418 , 1.4231
2.25 , 11.7212 , 1.42061
2.35 , 11.3884 , 1.38027
2.45 , 10.6733 , 1.29361
2.55 , 10.0066 , 1.21279
2.65 , 9.22883 , 1.11853
2.75 , 8.4258 , 1.02121
2.85 , 7.80688 , 0.946194
Centrality = 40 - 60 percentile
Eta , dNch/deta, Sys. Uncertainty
-2.85 , 11.7963 , 1.41555
-2.75 , 11.1828 , 1.34193
-2.65 , 11.0041 , 1.32049
-2.55 , 10.9581 , 1.31498
-2.45 , 10.9535 , 1.31442
-2.35 , 10.7365 , 1.28838
-2.25 , 10.6874 , 1.28249
-2.15 , 10.8947 , 1.30736
-2.05 , 11.193 , 1.34316
-1.95 , 11.862 , 1.42344
-1.85 , 11.7304 , 1.40764
-1.75 , 11.4408 , 1.3729
-1.65 , 11.9518 , 1.43421
-0.25 , 9.13478 , 1.00483
-0.15 , 9.39378 , 1.03332
-0.05 , 10.4038 , 1.14442
0.05 , 10.1957 , 1.12153
0.15 , 8.30072 , 0.913079
0.25 , 8.91423 , 0.980565
1.65 , 8.61354 , 1.0543
1.75 , 9.12105 , 1.11642
1.85 , 9.15968 , 1.12114
1.95 , 8.90921 , 1.09049
2.05 , 8.99168 , 1.10058
2.15 , 8.5992 , 1.05254
2.25 , 8.46559 , 1.03619
2.35 , 8.01866 , 0.981483
2.45 , 7.60745 , 0.931151
2.55 , 7.12185 , 0.871714
2.65 , 6.93559 , 0.848916
2.75 , 6.27819 , 0.768451
2.85 , 5.95705 , 0.729143
Centrality = 60 - 88 percentile
Eta , dNch/deta, Sys. Uncertainty
-2.85 , 4.80918 , 0.577101
-2.75 , 4.65413 , 0.558496
-2.65 , 4.6632 , 0.559584
-2.55 , 4.61946 , 0.554335
-2.45 , 4.73488 , 0.568186
-2.35 , 4.5018 , 0.540216
-2.25 , 4.48776 , 0.538531
-2.15 , 4.65228 , 0.558273
-2.05 , 4.60241 , 0.552289
-1.95 , 4.71906 , 0.566287
-1.85 , 4.85362 , 0.582434
-1.75 , 4.9033 , 0.588396
-1.65 , 5.01606 , 0.601928
-0.25 , 4.06063 , 0.446669
-0.15 , 4.18477 , 0.460325
-0.05 , 4.48699 , 0.493569
0.05 , 4.38465 , 0.482312
0.15 , 3.37529 , 0.371282
0.25 , 3.73493 , 0.410843
1.65 , 4.19628 , 0.51866
1.75 , 4.18472 , 0.517231
1.85 , 4.38664 , 0.542189
1.95 , 4.54481 , 0.561738
2.05 , 4.38062 , 0.541445
2.15 , 4.25618 , 0.526064
2.25 , 4.27652 , 0.528578
2.35 , 4.09381 , 0.505995
2.45 , 3.8876 , 0.480507
2.55 , 3.76125 , 0.46489
2.65 , 3.69052 , 0.456148
2.75 , 3.35763 , 0.415003
2.85 , 3.27471 , 0.404755
=========================================
d+Au at 200 GeV Results
=========================================
Centrality = 0 - 5 percentile
Eta , dNch/deta, Sys. Uncertainty
-2.55 , 25.7675 , 2.23426
-2.45 , 25.3849 , 2.13874
-2.35 , 25.3966 , 2.05289
-2.25 , 25.48 , 2.07155
-2.15 , 25.449 , 1.99165
-2.05 , 25.3757 , 2.03624
-1.95 , 25.3733 , 1.9753
-1.85 , 25.2203 , 1.99969
-1.75 , 24.9978 , 1.8701
-1.65 , 24.9485 , 1.93
-1.55 , 24.9521 , 2.06279
-1.45 , 25.0328 , 2.36481
-1.35 , 25.3146 , 1.97087
-0.35 , 19.6818 , 1.84532
-0.25 , 19.4 , 1.63217
-0.15 , 19.1007 , 1.68964
-0.05 , 18.8106 , 1.7654
0.05 , 18.4478 , 1.52581
0.15 , 18.1886 , 1.6413
0.25 , 17.8882 , 1.50094
0.35 , 17.4465 , 1.81029
1.35 , 14.3922 , 1.11557
1.45 , 14.4455 , 1.10201
1.55 , 14.3298 , 1.04469
1.65 , 14.1921 , 1.22371
1.75 , 13.9354 , 1.03818
1.85 , 13.6332 , 1.06088
1.95 , 13.2114 , 1.00823
2.05 , 12.8126 , 1.00002
2.15 , 12.3463 , 1.0425
2.25 , 11.827 , 1.0811
2.35 , 11.3996 , 0.975203
2.45 , 11.1187 , 1.00455
2.55 , 11.1108 , 1.22483
Centrality = 5 - 10 percentile
Eta , dNch/deta, Sys. Uncertainty
-2.55 , 21.4779 , 2.95981
-2.45 , 22.0015 , 3.02066
-2.35 , 21.993 , 2.93907
-2.25 , 22.1685 , 2.99269
-2.15 , 22.1497 , 2.9102
-2.05 , 22.0322 , 2.97173
-1.95 , 22.2005 , 2.97118
-1.85 , 21.9997 , 2.98946
-1.75 , 21.9024 , 2.85719
-1.65 , 21.7211 , 2.93252
-1.55 , 21.3867 , 2.99542
-1.45 , 21.0427 , 3.18969
-1.35 , 20.7976 , 2.86511
-0.35 , 17.2113 , 2.72863
-0.25 , 17.6985 , 2.50919
-0.15 , 17.1204 , 2.60424
-0.05 , 16.8267 , 2.77418
0.05 , 16.8008 , 2.37388
0.15 , 16.2783 , 2.36038
0.25 , 16.3501 , 2.28616
0.35 , 15.9015 , 3.37118
1.35 , 14.2816 , 1.95912
1.45 , 14.4311 , 1.90198
1.55 , 14.3816 , 1.85419
1.65 , 13.8283 , 2.00244
1.75 , 13.3977 , 1.75749
1.85 , 13.1757 , 1.75026
1.95 , 12.6249 , 1.6608
2.05 , 12.3763 , 1.64801
2.15 , 11.7351 , 1.61684
2.25 , 11.3544 , 1.67761
2.35 , 10.8898 , 1.5099
2.45 , 10.3123 , 1.49839
2.55 , 9.85042 , 1.71086
Centrality = 10 - 20 percentile
Eta , dNch/deta, Sys. Uncertainty
-2.55 , 18.9933 , 2.62641
-2.45 , 19.4745 , 2.55324
-2.35 , 19.4362 , 2.49745
-2.25 , 19.4855 , 2.52807
-2.15 , 19.3393 , 2.46878
-2.05 , 19.3252 , 2.50542
-1.95 , 19.4997 , 2.501
-1.85 , 19.4351 , 2.53081
-1.75 , 19.3754 , 2.43652
-1.65 , 19.0288 , 2.43369
-1.55 , 18.3478 , 2.51566
-1.45 , 17.9624 , 2.75647
-1.35 , 17.7256 , 2.31885
-0.35 , 15.9784 , 2.48513
-0.25 , 15.4828 , 2.11183
-0.15 , 15.6034 , 2.14025
-0.05 , 15.2718 , 2.25948
0.05 , 15.0775 , 1.9738
0.15 , 14.9705 , 2.24217
0.25 , 14.8513 , 1.99362
0.35 , 14.6388 , 2.11784
1.35 , 14.1084 , 1.87671
1.45 , 13.9203 , 1.84256
1.55 , 13.7558 , 1.7146
1.65 , 13.1905 , 1.87373
1.75 , 12.7474 , 1.59914
1.85 , 12.4015 , 1.62095
1.95 , 12.0527 , 1.52171
2.05 , 11.7335 , 1.50292
2.15 , 11.313 , 1.53299
2.25 , 10.7129 , 1.52085
2.35 , 10.2128 , 1.34999
2.45 , 9.66071 , 1.32647
2.55 , 8.98195 , 1.61788
Centrality = 20 - 40 percentile
Eta , dNch/deta, Sys. Uncertainty
-2.55 , 14.9082 , 2.02226
-2.45 , 15.1764 , 1.93456
-2.35 , 15.1152 , 1.90506
-2.25 , 15.1088 , 1.91813
-2.15 , 15.0499 , 1.87224
-2.05 , 15.0461 , 1.8821
-1.95 , 15.1027 , 1.88363
-1.85 , 15.0947 , 1.92466
-1.75 , 15.0848 , 1.85548
-1.65 , 14.7594 , 1.8959
-1.55 , 14.2063 , 1.88314
-1.45 , 13.6326 , 2.0335
-1.35 , 12.9344 , 1.62644
-0.35 , 12.6623 , 1.71206
-0.25 , 12.5719 , 1.59888
-0.15 , 12.4121 , 1.72779
-0.05 , 12.4635 , 1.70935
0.05 , 12.1718 , 1.56045
0.15 , 11.9402 , 1.60705
0.25 , 12.1107 , 1.5814
0.35 , 12.0305 , 1.91007
1.35 , 12.4572 , 1.62249
1.45 , 12.1102 , 1.51873
1.55 , 11.8315 , 1.4511
1.65 , 11.4212 , 1.68098
1.75 , 11.0164 , 1.36119
1.85 , 10.8007 , 1.46504
1.95 , 10.5024 , 1.30734
2.05 , 10.2797 , 1.29359
2.15 , 9.91463 , 1.28913
2.25 , 9.45981 , 1.2734
2.35 , 8.97121 , 1.1442
2.45 , 8.44231 , 1.10932
2.55 , 7.62818 , 1.46815
Centrality = 40 - 60 percentile
Eta , dNch/deta, Sys. Uncertainty
-2.55 , 9.81364 , 1.26491
-2.45 , 10.0393 , 1.2413
-2.35 , 9.96647 , 1.21675
-2.25 , 9.96546 , 1.21738
-2.15 , 9.97232 , 1.21893
-2.05 , 10.0031 , 1.22539
-1.95 , 10.0921 , 1.23856
-1.85 , 10.1331 , 1.24276
-1.75 , 10.0833 , 1.21566
-1.65 , 9.87887 , 1.20286
-1.55 , 9.41443 , 1.25474
-1.45 , 9.02544 , 1.24391
-1.35 , 8.46231 , 1.09847
-0.35 , 8.65695 , 1.15314
-0.25 , 8.71967 , 1.09833
-0.15 , 8.631 , 1.24918
-0.05 , 8.7345 , 1.23361
0.05 , 8.45277 , 1.04777
0.15 , 8.48387 , 1.10031
0.25 , 8.36685 , 1.12908
0.35 , 8.59685 , 1.33738
1.35 , 9.14508 , 1.11051
1.45 , 9.01271 , 1.09415
1.55 , 8.96484 , 1.05673
1.65 , 8.69014 , 1.15451
1.75 , 8.36006 , 0.998107
1.85 , 8.23214 , 1.01762
1.95 , 8.09365 , 0.965839
2.05 , 7.96462 , 0.964464
2.15 , 7.70529 , 0.980681
2.25 , 7.3925 , 0.988417
2.35 , 7.04668 , 0.880388
2.45 , 6.6464 , 0.859476
2.55 , 5.91319 , 0.941535
Centrality = 60 - 88 percentile
Eta , dNch/deta, Sys. Uncertainty
-2.55 , 4.46939 , 0.590186
-2.45 , 4.52181 , 0.561508
-2.35 , 4.55217 , 0.565512
-2.25 , 4.62479 , 0.576232
-2.15 , 4.65015 , 0.55685
-2.05 , 4.73351 , 0.578316
-1.95 , 4.80958 , 0.584806
-1.85 , 4.80597 , 0.613929
-1.75 , 4.78245 , 0.567603
-1.65 , 4.65279 , 0.56255
-1.55 , 4.50618 , 0.57818
-1.45 , 4.32725 , 0.584485
-1.35 , 4.13747 , 0.546598
-0.35 , 4.41769 , 0.621824
-0.25 , 4.4427 , 0.566576
-0.15 , 4.46521 , 0.575922
-0.05 , 4.38876 , 0.640375
0.05 , 4.34302 , 0.556683
0.15 , 4.4456 , 0.575384
0.25 , 4.42874 , 0.56132
0.35 , 4.48916 , 0.686651
1.35 , 4.66929 , 0.590254
1.45 , 4.69386 , 0.581975
1.55 , 4.79329 , 0.565004
1.65 , 4.75228 , 0.6594
1.75 , 4.70612 , 0.558816
1.85 , 4.73028 , 0.588867
1.95 , 4.68045 , 0.580403
2.05 , 4.68376 , 0.566684
2.15 , 4.55118 , 0.579842
2.25 , 4.39847 , 0.580098
2.35 , 4.23452 , 0.525699
2.45 , 4.02743 , 0.516348
2.55 , 3.71125 , 0.674901
=========================================
p+Au at 200 GeV Results
=========================================
Centrality = 0 - 5 percentile
Eta , dNch/deta, Sys. Uncertainty
-2.95 , 15.9484 , 1.91381
-2.85 , 16.0828 , 1.92994
-2.75 , 17.2605 , 2.07126
-2.65 , 17.7925 , 2.1351
-2.55 , 17.4747 , 2.09697
-2.45 , 17.4181 , 2.09018
-2.35 , 16.8991 , 2.0279
-2.25 , 16.798 , 2.01576
-2.15 , 16.7107 , 2.00528
-2.05 , 16.1905 , 1.94286
-1.95 , 15.9333 , 1.912
-1.85 , 16.7584 , 2.01101
-1.75 , 15.5275 , 1.8633
-1.65 , 16.8312 , 2.01975
-0.25 , 12.4003 , 1.73604
-0.15 , 12.0035 , 1.68049
-0.05 , 11.7482 , 1.64475
0.05 , 11.6523 , 1.63132
0.15 , 11.2964 , 1.5815
0.25 , 11.1838 , 1.56573
1.65 , 10.1208 , 1.21449
1.75 , 8.81555 , 1.05787
1.85 , 8.48838 , 1.01861
1.95 , 8.42988 , 1.01159
2.05 , 7.52855 , 0.903426
2.15 , 7.66585 , 0.919902
2.25 , 7.31096 , 0.877315
2.35 , 6.85746 , 0.822895
2.45 , 6.61132 , 0.793358
2.55 , 5.9891 , 0.718692
2.65 , 5.90691 , 0.708829
2.75 , 5.28712 , 0.634454
2.85 , 5.05035 , 0.606042
2.95 , 4.04063 , 0.484876
Centrality = 5 - 10 percentile
Eta , dNch/deta, Sys. Uncertainty
-2.95 , 13.2032 , 1.58439
-2.85 , 12.9963 , 1.55956
-2.75 , 12.9804 , 1.55765
-2.65 , 13.4049 , 1.60859
-2.55 , 13.3466 , 1.60159
-2.45 , 13.4737 , 1.61685
-2.35 , 13.3255 , 1.59906
-2.25 , 13.4756 , 1.61707
-2.15 , 13.4136 , 1.60964
-2.05 , 13.1634 , 1.5796
-1.95 , 12.9902 , 1.55882
-1.85 , 12.954 , 1.55447
-1.75 , 13.7931 , 1.65517
-1.65 , 13.5566 , 1.6268
-0.25 , 10.9368 , 1.53115
-0.15 , 10.3319 , 1.44647
-0.05 , 9.86308 , 1.38083
0.05 , 10.0161 , 1.40226
0.15 , 10.0444 , 1.40621
0.25 , 10.2173 , 1.43042
1.65 , 8.61097 , 1.03332
1.75 , 8.63118 , 1.03574
1.85 , 7.66752 , 0.920102
1.95 , 8.13367 , 0.976041
2.05 , 7.3691 , 0.884291
2.15 , 7.00796 , 0.840955
2.25 , 6.54895 , 0.785874
2.35 , 6.10174 , 0.732209
2.45 , 6.2482 , 0.749784
2.55 , 5.52268 , 0.662721
2.65 , 5.02325 , 0.60279
2.75 , 4.82574 , 0.579089
2.85 , 4.75239 , 0.570287
2.95 , 4.40207 , 0.528248
Centrality = 10 - 20 percentile
Eta , dNch/deta, Sys. Uncertainty
-2.95 , 10.2796 , 1.23355
-2.85 , 10.7333 , 1.288
-2.75 , 11.1551 , 1.33861
-2.65 , 11.3857 , 1.36629
-2.55 , 11.3518 , 1.36221
-2.45 , 11.2863 , 1.35435
-2.35 , 11.3672 , 1.36406
-2.25 , 11.4238 , 1.37085
-2.15 , 11.7076 , 1.40491
-2.05 , 11.5494 , 1.38593
-1.95 , 11.6474 , 1.39769
-1.85 , 11.9134 , 1.42961
-1.75 , 11.5982 , 1.39179
-1.65 , 12.1447 , 1.45736
-0.25 , 9.90097 , 1.38614
-0.15 , 9.50853 , 1.33119
-0.05 , 9.17779 , 1.28489
0.05 , 9.11653 , 1.27631
0.15 , 9.20432 , 1.2886
0.25 , 9.44983 , 1.32298
1.65 , 8.0458 , 0.965496
1.75 , 7.78362 , 0.934034
1.85 , 8.02108 , 0.96253
1.95 , 7.57708 , 0.909249
2.05 , 7.00504 , 0.840605
2.15 , 6.47807 , 0.777368
2.25 , 6.15946 , 0.739135
2.35 , 6.1406 , 0.736872
2.45 , 5.58052 , 0.669663
2.55 , 5.27791 , 0.63335
2.65 , 5.21296 , 0.625556
2.75 , 4.98163 , 0.597795
2.85 , 4.55142 , 0.54617
2.95 , 3.90306 , 0.468367
Centrality = 20 - 40 percentile
Eta , dNch/deta, Sys. Uncertainty
-2.95 , 8.30473 , 0.996568
-2.85 , 8.29537 , 0.995444
-2.75 , 8.40045 , 1.00805
-2.65 , 8.56152 , 1.02738
-2.55 , 8.67635 , 1.04116
-2.45 , 8.57282 , 1.02874
-2.35 , 8.59253 , 1.0311
-2.25 , 8.54114 , 1.02494
-2.15 , 8.74448 , 1.04934
-2.05 , 8.73744 , 1.04849
-1.95 , 8.90621 , 1.06875
-1.85 , 8.98245 , 1.07789
-1.75 , 9.09453 , 1.09134
-1.65 , 9.18982 , 1.10278
-0.25 , 8.21503 , 1.1501
-0.15 , 7.93015 , 1.11022
-0.05 , 7.77149 , 1.08801
0.05 , 7.61397 , 1.06596
0.15 , 7.68967 , 1.07655
0.25 , 7.85375 , 1.09953
1.65 , 7.3427 , 0.881124
1.75 , 7.14345 , 0.857214
1.85 , 6.8166 , 0.817992
1.95 , 6.40511 , 0.768613
2.05 , 6.21605 , 0.745926
2.15 , 6.18698 , 0.742437
2.25 , 5.6591 , 0.679092
2.35 , 5.50681 , 0.660817
2.45 , 5.40706 , 0.648847
2.55 , 5.09265 , 0.611118
2.65 , 4.68212 , 0.561855
2.75 , 4.78835 , 0.574602
2.85 , 4.48464 , 0.538156
2.95 , 4.27659 , 0.513191
Centrality = 40 - 60 percentile
Eta , dNch/deta, Sys. Uncertainty
-2.95 , 5.17604 , 0.621125
-2.85 , 5.61395 , 0.673674
-2.75 , 5.79597 , 0.695516
-2.65 , 5.72498 , 0.686998
-2.55 , 5.8556 , 0.702672
-2.45 , 5.92294 , 0.710753
-2.35 , 6.077 , 0.72924
-2.25 , 6.05584 , 0.726701
-2.15 , 6.06687 , 0.728024
-2.05 , 6.1797 , 0.741563
-1.95 , 6.495 , 0.7794
-1.85 , 6.52092 , 0.782511
-1.75 , 6.5237 , 0.782844
-1.65 , 6.91649 , 0.829979
-0.25 , 6.1754 , 0.864556
-0.15 , 5.71595 , 0.800234
-0.05 , 5.81489 , 0.814085
0.05 , 5.66009 , 0.792413
0.15 , 5.69606 , 0.797449
0.25 , 5.92565 , 0.829591
1.65 , 6.17725 , 0.74127
1.75 , 5.8202 , 0.698424
1.85 , 5.61709 , 0.674051
1.95 , 5.26202 , 0.631442
2.05 , 5.01126 , 0.601351
2.15 , 4.8744 , 0.584928
2.25 , 4.63817 , 0.55658
2.35 , 4.5636 , 0.547632
2.45 , 4.41786 , 0.530143
2.55 , 4.28431 , 0.514117
2.65 , 4.23349 , 0.508019
2.75 , 4.11252 , 0.493502
2.85 , 3.95875 , 0.47505
2.95 , 3.66028 , 0.439233
Centrality = 60 - 84 percentile
Eta , dNch/deta, Sys. Uncertainty
-2.95 , 2.96905 , 0.356286
-2.85 , 3.27175 , 0.39261
-2.75 , 3.29837 , 0.395805
-2.65 , 3.43927 , 0.412713
-2.55 , 3.52012 , 0.422414
-2.45 , 3.47126 , 0.416551
-2.35 , 3.65419 , 0.438503
-2.25 , 3.63069 , 0.435683
-2.15 , 3.79887 , 0.455864
-2.05 , 3.88944 , 0.466733
-1.95 , 3.96638 , 0.475966
-1.85 , 4.17533 , 0.50104
-1.75 , 4.34537 , 0.521444
-1.65 , 4.56152 , 0.547382
-0.25 , 3.71351 , 0.519892
-0.15 , 3.60558 , 0.504781
-0.05 , 3.49058 , 0.488682
0.05 , 3.5683 , 0.499562
0.15 , 3.61166 , 0.505633
0.25 , 3.66392 , 0.512949
1.65 , 4.54253 , 0.545103
1.75 , 4.41393 , 0.529671
1.85 , 4.25319 , 0.510383
1.95 , 3.92494 , 0.470993
2.05 , 3.80789 , 0.456947
2.15 , 3.80843 , 0.457011
2.25 , 3.67462 , 0.440954
2.35 , 3.4308 , 0.411696
2.45 , 3.51938 , 0.422326
2.55 , 3.37942 , 0.40553
2.65 , 3.25512 , 0.390614
2.75 , 3.1004 , 0.372048
2.85 , 2.96631 , 0.355957
2.95 , 3.07588 , 0.369106
=========================================
p+Al at 200 GeV Results
=========================================
Centrality = 0 - 5 percentile
Eta , dNch/deta, Sys. Uncertainty
-2.85 , 6.02226 , 0.722671
-2.75 , 6.72708 , 0.80725
-2.65 , 6.95982 , 0.835178
-2.55 , 6.93506 , 0.832207
-2.45 , 6.96624 , 0.835949
-2.35 , 7.21678 , 0.866013
-2.25 , 7.32964 , 0.879556
-2.15 , 7.29292 , 0.87515
-2.05 , 7.23246 , 0.867896
-1.95 , 7.58972 , 0.910766
-1.85 , 7.45226 , 0.894271
-1.75 , 7.48082 , 0.897698
-1.65 , 7.53808 , 0.904569
-0.35 , 5.56692 , 0.779368
-0.25 , 5.56177 , 0.778648
-0.15 , 5.60312 , 0.784436
-0.05 , 5.39786 , 0.755701
0.05 , 5.58777 , 0.782288
0.15 , 5.6255 , 0.78757
0.25 , 5.44677 , 0.762548
1.65 , 4.8498 , 0.581976
1.75 , 4.53765 , 0.544518
1.85 , 4.48584 , 0.538301
1.95 , 4.33473 , 0.520167
2.05 , 4.3958 , 0.527496
2.15 , 4.57279 , 0.548735
2.25 , 4.54282 , 0.545139
2.35 , 4.13683 , 0.496419
2.45 , 4.0315 , 0.48378
2.55 , 3.73485 , 0.448182
2.65 , 3.73556 , 0.448268
2.75 , 3.33853 , 0.400624
2.85 , 3.09068 , 0.370882
Centrality = 5 - 10 percentile
Eta , dNch/deta, Sys. Uncertainty
-2.85 , 5.33637 , 0.640365
-2.75 , 5.53366 , 0.664039
-2.65 , 5.79085 , 0.694902
-2.55 , 5.88411 , 0.706093
-2.45 , 5.90009 , 0.70801
-2.35 , 6.24314 , 0.749177
-2.25 , 6.29182 , 0.755019
-2.15 , 6.19705 , 0.743645
-2.05 , 6.59343 , 0.791212
-1.95 , 6.34375 , 0.76125
-1.85 , 6.41647 , 0.769976
-1.75 , 6.71409 , 0.805691
-1.65 , 6.54445 , 0.785334
-0.35 , 4.92594 , 0.689632
-0.25 , 5.36718 , 0.751405
-0.15 , 5.20139 , 0.728194
-0.05 , 5.14751 , 0.720651
0.05 , 5.25446 , 0.735624
0.15 , 5.28099 , 0.739339
0.25 , 5.0415 , 0.705811
1.65 , 4.53845 , 0.544614
1.75 , 4.66027 , 0.559232
1.85 , 4.42245 , 0.530694
1.95 , 4.5534 , 0.546408
2.05 , 4.42485 , 0.530982
2.15 , 4.27167 , 0.5126
2.25 , 4.1664 , 0.499968
2.35 , 3.99267 , 0.47912
2.45 , 4.00726 , 0.480871
2.55 , 3.80317 , 0.456381
2.65 , 3.69381 , 0.443257
2.75 , 3.55862 , 0.427035
2.85 , 3.20415 , 0.384498
Centrality = 10 - 20 percentile
Eta , dNch/deta, Sys. Uncertainty
-2.85 , 4.65297 , 0.558356
-2.75 , 4.80941 , 0.577129
-2.65 , 4.96575 , 0.59589
-2.55 , 5.16155 , 0.619386
-2.45 , 5.10978 , 0.613174
-2.35 , 5.30548 , 0.636658
-2.25 , 5.42309 , 0.650771
-2.15 , 5.50243 , 0.660292
-2.05 , 5.50753 , 0.660904
-1.95 , 5.52445 , 0.662934
-1.85 , 5.48289 , 0.657947
-1.75 , 5.69111 , 0.682934
-1.65 , 5.60457 , 0.672548
-0.35 , 4.52545 , 0.633563
-0.25 , 4.60476 , 0.644666
-0.15 , 4.70788 , 0.659103
-0.05 , 4.7079 , 0.659106
0.05 , 5.03226 , 0.704517
0.15 , 4.81643 , 0.6743
0.25 , 4.36938 , 0.611714
1.65 , 4.12428 , 0.494914
1.75 , 4.1165 , 0.49398
1.85 , 4.22334 , 0.506801
1.95 , 4.01678 , 0.482013
2.05 , 3.91878 , 0.470253
2.15 , 3.98992 , 0.478791
2.25 , 3.71842 , 0.446211
2.35 , 3.7978 , 0.455736
2.45 , 3.65866 , 0.43904
2.55 , 3.49125 , 0.41895
2.65 , 3.40363 , 0.408436
2.75 , 3.36041 , 0.403249
2.85 , 3.09726 , 0.371671
Centrality = 20 - 40 percentile
Eta , dNch/deta, Sys. Uncertainty
-2.85 , 3.49701 , 0.419642
-2.75 , 3.82984 , 0.459581
-2.65 , 3.90613 , 0.468735
-2.55 , 3.93782 , 0.472538
-2.45 , 4.14238 , 0.497086
-2.35 , 4.20543 , 0.504651
-2.25 , 4.29302 , 0.515162
-2.15 , 4.295 , 0.5154
-2.05 , 4.34121 , 0.520946
-1.95 , 4.45598 , 0.534718
-1.85 , 4.51257 , 0.541509
-1.75 , 4.44596 , 0.533516
-1.65 , 4.35703 , 0.522844
-0.35 , 3.71047 , 0.519466
-0.25 , 4.06535 , 0.56915
-0.15 , 4.03984 , 0.565577
-0.05 , 4.09202 , 0.572883
0.05 , 3.91777 , 0.548488
0.15 , 4.06884 , 0.569638
0.25 , 3.97519 , 0.556527
1.65 , 3.64496 , 0.437395
1.75 , 3.60171 , 0.432205
1.85 , 3.71468 , 0.445762
1.95 , 3.70775 , 0.44493
2.05 , 3.63057 , 0.435669
2.15 , 3.63036 , 0.435643
2.25 , 3.5565 , 0.42678
2.35 , 3.51329 , 0.421595
2.45 , 3.40442 , 0.40853
2.55 , 3.27284 , 0.392741
2.65 , 3.24128 , 0.388953
2.75 , 3.08307 , 0.369968
2.85 , 3.02417 , 0.362901
Centrality = 40 - 74 percentile
Eta , dNch/deta, Sys. Uncertainty
-2.85 , 2.52492 , 0.302991
-2.75 , 2.62741 , 0.31529
-2.65 , 2.66507 , 0.319808
-2.55 , 2.77626 , 0.333151
-2.45 , 2.80791 , 0.33695
-2.35 , 2.8675 , 0.344099
-2.25 , 2.95358 , 0.35443
-2.15 , 3.04486 , 0.365383
-2.05 , 3.07271 , 0.368725
-1.95 , 3.14887 , 0.377865
-1.85 , 3.25568 , 0.390681
-1.75 , 3.16695 , 0.380034
-1.65 , 3.25454 , 0.390545
-0.35 , 2.98568 , 0.417995
-0.25 , 3.09202 , 0.432882
-0.15 , 3.01176 , 0.421647
-0.05 , 3.14596 , 0.440435
0.05 , 3.26988 , 0.457783
0.15 , 3.10866 , 0.435212
0.25 , 2.86242 , 0.400739
1.65 , 3.01264 , 0.361517
1.75 , 3.15775 , 0.378929
1.85 , 3.07083 , 0.3685
1.95 , 3.06254 , 0.367504
2.05 , 3.08266 , 0.369919
2.15 , 3.09212 , 0.371055
2.25 , 3.04903 , 0.365884
2.35 , 3.01726 , 0.362071
2.45 , 2.97273 , 0.356728
2.55 , 2.90678 , 0.348814
2.65 , 2.88015 , 0.345619
2.75 , 2.80565 , 0.336678
2.85 , 2.70665 , 0.324798

Script done on Mon 26 Nov 2018 07:56:10 PM STD
