Fig. 27 (Minimum bias cocktail)

Cocktail with PYTHIA ccbar and bbbar (total)
x y
0.005 0
0.015 0.
0.025 0.00420482
0.035 0.0148094
0.045 0.0190392
0.055 0.0170209
0.065 0.0136524
0.075 0.0107047
0.085 0.00770689
0.095 0.00517787
0.105 0.00334548
0.115 0.00209252
0.125 0.00148319
0.135 0.00125992
0.145 0.00112151
0.155 0.00104218
0.165 0.000943622
0.175 0.000859811
0.185 0.000815694
0.195 0.000740237
0.205 0.000662842
0.215 0.000609167
0.225 0.000534554
0.235 0.000493818
0.245 0.000470274
0.255 0.000414103
0.265 0.000391477
0.275 0.000361638
0.285 0.000325069
0.295 0.00030064
0.305 0.000273772
0.315 0.000246152
0.325 0.000221953
0.335 0.000215901
0.345 0.000186155
0.355 0.000184908
0.365 0.000181239
0.375 0.000156954
0.385 0.000139961
0.395 0.000139666
0.405 0.000134419
0.415 0.000116567
0.425 0.000106768
0.435 0.000101575
0.445 0.000101369
0.455 9.45568e-05
0.465 8.83958e-05
0.475 8.48525e-05
0.485 8.36487e-05
0.495 8.0018e-05
0.505 7.49089e-05
0.515 7.62315e-05
0.525 7.50926e-05
0.535 7.50602e-05
0.545 7.86687e-05
0.555 7.83403e-05
0.565 7.35608e-05
0.575 8.10742e-05
0.585 8.07414e-05
0.595 8.31786e-05
0.605 8.1376e-05
0.615 8.07218e-05
0.625 7.74789e-05
0.635 7.73325e-05
0.645 7.38818e-05
0.655 7.98865e-05
0.665 8.20566e-05
0.675 8.42828e-05
0.685 9.09732e-05
0.695 9.62739e-05
0.705 0.000103766
0.715 0.000111043
0.725 0.00011948
0.735 0.000122943
0.745 0.000138318
0.755 0.000180358
0.765 0.000273408
0.775 0.000352193
0.785 0.000263818
0.795 0.000148819
0.805 9.43163e-05
0.815 7.54792e-05
0.825 7.01806e-05
0.835 6.60664e-05
0.845 6.32386e-05
0.855 5.68308e-05
0.865 5.71503e-05
0.875 5.76161e-05
0.885 5.62786e-05
0.895 5.97069e-05
0.905 5.5693e-05
0.915 5.47432e-05
0.925 5.83293e-05
0.935 5.92082e-05
0.945 5.87332e-05
0.955 6.35532e-05
0.965 6.91303e-05
0.975 7.45865e-05
0.985 9.93326e-05
0.995 0.000168707
1.005 0.000261844
1.015 0.000277146
1.025 0.000187891
1.035 9.13933e-05
1.045 5.11674e-05
1.1 2.99222e-05
1.2 2.34891e-05
1.35 1.79882e-05
1.55 1.26688e-05
1.75 8.70794e-06
1.95 6.04534e-06
2.15 4.24743e-06
2.35 3.21566e-06
2.55 2.43082e-06
2.75 2.6471e-06
2.9 3.58595e-06
3 9.03508e-06
3.1 1.36731e-05
3.2 5.0418e-06
3.3 1.2221e-06
3.4 6.71426e-07
3.5 4.60331e-07
3.6 4.21234e-07
3.7 2.71364e-07
3.875 2.57082e-07
4.125 1.99093e-07
4.375 1.59817e-07
4.625 1.41343e-07
4.875 1.05483e-07

Cocktail pi0eeg
x y
0.005 0
0.015 0
0.025 0.00368241
0.035 0.0126177
0.045 0.0160016
0.055 0.013924
0.065 0.0108215
0.075 0.00817316
0.085 0.0054554
0.095 0.00319266
0.105 0.0015578
0.115 0.000525568
0.125 0.000105184
0.135 4.69136e-06
0.145 2.27241e-10
0.155 8.45258e-14
0.165 1.39184e-13
0.175 0
0.185 0
0.195 0
0.205 0
0.215 0
0.225 0
0.235 0
0.245 0
0.255 0
0.265 0
0.275 0
0.285 0
0.295 0
0.305 0
0.315 0
0.325 0
0.335 0
0.345 0
0.355 0
0.365 0
0.375 0
0.385 0
0.395 0
0.405 0
0.415 0
0.425 0
0.435 0
0.445 0
0.455 0
0.465 0
0.475 0
0.485 0
0.495 0
0.505 0
0.515 0
0.525 0
0.535 0
0.545 0
0.555 0
0.565 0
0.575 0
0.585 0
0.595 0
0.605 0
0.615 0
0.625 0
0.635 0
0.645 0
0.655 0
0.665 0
0.675 0
0.685 0
0.695 0
0.705 0
0.715 0
0.725 0
0.735 0
0.745 0
0.755 0
0.765 0
0.775 0
0.785 0
0.795 0
0.805 0
0.815 0
0.825 0
0.835 0
0.845 0
0.855 0
0.865 0
0.875 0
0.885 0
0.895 0
0.905 0
0.915 0
0.925 0
0.935 0
0.945 0
0.955 0
0.965 0
0.975 0
0.985 0
0.995 0
1.005 0
1.015 0
1.025 0
1.035 0
1.045 0
1.1 0
1.2 0
1.35 0
1.55 0
1.75 0
1.95 0
2.15 0
2.35 0
2.55 0
2.75 0
2.9 0
3 0
3.1 0
3.2 0
3.3 0
3.4 0
3.5 0
3.6 0
3.7 0
3.875 0
4.125 0
4.375 0
4.625 0
4.875 0

Cocktail etaeeg
x y
0.005 0
0.015 0
0.025 0.000436208
0.035 0.00184337
0.045 0.0025407
0.055 0.00257913
0.065 0.00234578
0.075 0.00209111
0.085 0.00185735
0.095 0.00162442
0.105 0.001455
0.115 0.0012671
0.125 0.00110889
0.135 0.0010033
0.145 0.000886177
0.155 0.000820682
0.165 0.00074091
0.175 0.000659368
0.185 0.000629841
0.195 0.000565177
0.205 0.000499025
0.215 0.000454302
0.225 0.000388225
0.235 0.000355061
0.245 0.000337134
0.255 0.000293103
0.265 0.000272394
0.275 0.000245782
0.285 0.000215539
0.295 0.000198238
0.305 0.00017205
0.315 0.00015161
0.325 0.000134988
0.335 0.000124046
0.345 0.000103351
0.355 0.000102589
0.365 9.80367e-05
0.375 8.1215e-05
0.385 6.60451e-05
0.395 6.31112e-05
0.405 5.74262e-05
0.415 4.17165e-05
0.425 3.37798e-05
0.435 2.56599e-05
0.445 2.6958e-05
0.455 2.05797e-05
0.465 1.39136e-05
0.475 1.08594e-05
0.485 8.05372e-06
0.495 3.74082e-06
0.505 1.26186e-06
0.515 2.01112e-06
0.525 4.28677e-07
0.535 1.51943e-08
0.545 1.83004e-09
0.555 1.26395e-10
0.565 5.25059e-13
0.575 1.03705e-12
0.585 1.0278e-13
0.595 0
0.605 0
0.615 0
0.625 0
0.635 0
0.645 0
0.655 0
0.665 0
0.675 0
0.685 0
0.695 0
0.705 0
0.715 0
0.725 0
0.735 0
0.745 0
0.755 0
0.765 0
0.775 0
0.785 0
0.795 0
0.805 0
0.815 0
0.825 0
0.835 0
0.845 0
0.855 0
0.865 0
0.875 0
0.885 0
0.895 0
0.905 0
0.915 0
0.925 0
0.935 0
0.945 0
0.955 0
0.965 0
0.975 0
0.985 0
0.995 0
1.005 0
1.015 0
1.025 0
1.035 0
1.045 0
1.1 0
1.2 0
1.35 0
1.55 0
1.75 0
1.95 0
2.15 0
2.35 0
2.55 0
2.75 0
2.9 0
3 0
3.1 0
3.2 0
3.3 0
3.4 0
3.5 0
3.6 0
3.7 0
3.875 0
4.125 0
4.375 0
4.625 0
4.875 0

Cocktail etapeeg
x y
0.005 0
0.015 0
0.025 9.34972e-06
0.035 4.42756e-05
0.045 6.73516e-05
0.055 7.48804e-05
0.065 7.02228e-05
0.075 6.52235e-05
0.085 5.80516e-05
0.095 5.15229e-05
0.105 4.71875e-05
0.115 4.17588e-05
0.125 3.7791e-05
0.135 3.40532e-05
0.145 3.12081e-05
0.155 2.87095e-05
0.165 2.57501e-05
0.175 2.35196e-05
0.185 2.15324e-05
0.195 2.0334e-05
0.205 1.91139e-05
0.215 1.70038e-05
0.225 1.57876e-05
0.235 1.47454e-05
0.245 1.38154e-05
0.255 1.24676e-05
0.265 1.11977e-05
0.275 1.08519e-05
0.285 1.01534e-05
0.295 9.5877e-06
0.305 8.72727e-06
0.315 8.14715e-06
0.325 7.95532e-06
0.335 7.42081e-06
0.345 6.82084e-06
0.355 6.75137e-06
0.365 6.31075e-06
0.375 6.35609e-06
0.385 6.20078e-06
0.395 5.96371e-06
0.405 5.60606e-06
0.415 5.52712e-06
0.425 5.21492e-06
0.435 5.20791e-06
0.445 5.24401e-06
0.455 5.22613e-06
0.465 5.47768e-06
0.475 5.08746e-06
0.485 5.12711e-06
0.495 5.53112e-06
0.505 5.24629e-06
0.515 5.12364e-06
0.525 5.83684e-06
0.535 5.56478e-06
0.545 5.70927e-06
0.555 5.70732e-06
0.565 6.1148e-06
0.575 6.25372e-06
0.585 6.16796e-06
0.595 6.80371e-06
0.605 6.73655e-06
0.615 7.25467e-06
0.625 7.25681e-06
0.635 7.62296e-06
0.645 8.02739e-06
0.655 8.32525e-06
0.665 8.85427e-06
0.675 9.24266e-06
0.685 9.7375e-06
0.695 1.01472e-05
0.705 1.06629e-05
0.715 1.15593e-05
0.725 1.14083e-05
0.735 1.13248e-05
0.745 1.10707e-05
0.755 9.98075e-06
0.765 8.35942e-06
0.775 6.47476e-06
0.785 4.87716e-06
0.795 3.42693e-06
0.805 2.5067e-06
0.815 1.67573e-06
0.825 1.06832e-06
0.835 6.64698e-07
0.845 4.08905e-07
0.855 2.58494e-07
0.865 2.07496e-07
0.875 8.46657e-08
0.885 6.8518e-08
0.895 1.66663e-08
0.905 1.29765e-08
0.915 2.11121e-08
0.925 2.90797e-10
0.935 5.11614e-11
0.945 1.04915e-10
0.955 3.65027e-12
0.965 1.05517e-13
0.975 1.81761e-12
0.985 1.3001e-14
0.995 3.71959e-15
1.005 9.18569e-15
1.015 0
1.025 0
1.035 0
1.045 0
1.1 0
1.2 0
1.35 0
1.55 0
1.75 0
1.95 0
2.15 0
2.35 0
2.55 0
2.75 0
2.9 0
3 0
3.1 0
3.2 0
3.3 0
3.4 0
3.5 0
3.6 0
3.7 0
3.875 0
4.125 0
4.375 0
4.625 0
4.875 0

Cocktail rhoee
x y
0.005 0
0.015 0
0.025 0
0.035 0
0.045 0
0.055 0
0.065 0
0.075 0
0.085 0
0.095 4.63046e-13
0.105 1.59693e-13
0.115 1.0147e-13
0.125 5.8993e-10
0.135 1.44021e-09
0.145 2.8082e-10
0.155 1.64827e-09
0.165 4.17643e-09
0.175 7.42401e-09
0.185 1.70169e-08
0.195 2.65137e-08
0.205 3.75388e-08
0.215 7.9753e-08
0.225 9.20111e-08
0.235 1.54295e-07
0.245 2.72092e-07
0.255 3.70089e-07
0.265 6.24967e-07
0.275 1.76016e-06
0.285 2.92314e-06
0.295 3.15136e-06
0.305 3.08204e-06
0.315 3.04157e-06
0.325 3.13884e-06
0.335 3.00373e-06
0.345 3.05459e-06
0.355 3.06072e-06
0.365 3.09483e-06
0.375 3.16023e-06
0.385 3.09647e-06
0.395 2.99018e-06
0.405 3.22349e-06
0.415 3.26612e-06
0.425 3.44533e-06
0.435 3.51218e-06
0.445 3.53823e-06
0.455 3.77402e-06
0.465 4.007e-06
0.475 3.9466e-06
0.485 4.20156e-06
0.495 4.26303e-06
0.505 4.72601e-06
0.515 5.00776e-06
0.525 5.37123e-06
0.535 5.94195e-06
0.545 6.3161e-06
0.555 6.6887e-06
0.565 7.29886e-06
0.575 7.77278e-06
0.585 8.86418e-06
0.595 9.42322e-06
0.605 1.04955e-05
0.615 1.14931e-05
0.625 1.29049e-05
0.635 1.36283e-05
0.645 1.53797e-05
0.655 1.71353e-05
0.665 1.89454e-05
0.675 2.0829e-05
0.685 2.322e-05
0.695 2.57555e-05
0.705 2.8131e-05
0.715 3.06029e-05
0.725 3.24157e-05
0.735 3.48603e-05
0.745 3.60735e-05
0.755 3.49791e-05
0.765 3.41779e-05
0.775 3.15677e-05
0.785 2.84412e-05
0.795 2.60614e-05
0.805 2.29229e-05
0.815 1.95557e-05
0.825 1.743e-05
0.835 1.5119e-05
0.845 1.33703e-05
0.855 1.13193e-05
0.865 1.00921e-05
0.875 8.8215e-06
0.885 7.7805e-06
0.895 6.8738e-06
0.905 6.23799e-06
0.915 5.6079e-06
0.925 5.03646e-06
0.935 4.59255e-06
0.945 4.08124e-06
0.955 3.76365e-06
0.965 3.41754e-06
0.975 3.41338e-06
0.985 2.70265e-06
0.995 2.62823e-06
1.005 2.42976e-06
1.015 2.29558e-06
1.025 2.26923e-06
1.035 2.12674e-06
1.045 1.94455e-06
1.1 1.33317e-06
1.2 7.76791e-07
1.35 4.02197e-07
1.55 2.16667e-07
1.75 1.21991e-07
1.95 7.50355e-08
2.15 4.83043e-08
2.35 3.47214e-08
2.55 2.49526e-08
2.75 1.77266e-08
2.9 1.22146e-08
3 1.16456e-08
3.1 9.15032e-09
3.2 1.18837e-08
3.3 9.39571e-09
3.4 7.1259e-09
3.5 5.46912e-09
3.6 5.38913e-09
3.7 6.02454e-09
3.875 5.62318e-09
4.125 4.42666e-09
4.375 2.76423e-09
4.625 3.0784e-09
4.875 1.1209e-09

Cocktail omegaee + omegaeepi0
x y
0.005 0
0.015 0
0.025 6.23625e-05
0.035 0.000277148
0.045 0.000396231
0.055 0.000406244
0.065 0.000374984
0.075 0.00033546
0.085 0.000296086
0.095 0.000266315
0.105 0.00023509
0.115 0.000209528
0.125 0.000184787
0.135 0.000168116
0.145 0.000152787
0.155 0.000143909
0.165 0.000123393
0.175 0.000122774
0.185 0.000109211
0.195 9.86501e-05
0.205 9.22671e-05
0.215 8.41752e-05
0.225 7.5885e-05
0.235 6.88578e-05
0.245 6.44487e-05
0.255 6.05254e-05
0.265 5.59093e-05
0.275 4.99302e-05
0.285 4.7407e-05
0.295 4.34349e-05
0.305 4.0066e-05
0.315 3.98289e-05
0.325 3.59985e-05
0.335 3.4372e-05
0.345 3.29262e-05
0.355 3.00199e-05
0.365 3.05687e-05
0.375 2.7621e-05
0.385 2.67217e-05
0.395 2.45967e-05
0.405 2.53882e-05
0.415 2.36177e-05
0.425 2.45922e-05
0.435 2.44668e-05
0.445 2.33495e-05
0.455 2.20003e-05
0.465 2.27757e-05
0.475 2.30961e-05
0.485 2.32127e-05
0.495 2.20322e-05
0.505 2.18621e-05
0.515 2.3614e-05
0.525 2.32378e-05
0.535 2.36311e-05
0.545 2.31603e-05
0.555 2.25641e-05
0.565 2.13906e-05
0.575 2.26193e-05
0.585 2.12671e-05
0.595 2.14756e-05
0.605 1.97851e-05
0.615 1.84724e-05
0.625 1.39809e-05
0.635 1.05062e-05
0.645 7.30439e-06
0.655 8.53728e-06
0.665 9.05913e-06
0.675 1.03495e-05
0.685 1.36639e-05
0.695 1.61479e-05
0.705 1.92155e-05
0.715 2.48679e-05
0.725 3.05575e-05
0.735 3.57407e-05
0.745 4.94968e-05
0.755 8.96305e-05
0.765 0.000186086
0.775 0.000269557
0.785 0.00018781
0.795 7.52125e-05
0.805 2.439e-05
0.815 1.00282e-05
0.825 6.76091e-06
0.835 4.17789e-06
0.845 2.49986e-06
0.855 2.26137e-06
0.865 1.95519e-06
0.875 1.37562e-06
0.885 1.02121e-06
0.895 8.32575e-07
0.905 8.56459e-07
0.915 3.19566e-07
0.925 7.59275e-07
0.935 4.06879e-07
0.945 5.87389e-07
0.955 4.56245e-07
0.965 4.90373e-07
0.975 2.0794e-07
0.985 1.60272e-07
0.995 2.27002e-07
1.005 2.06991e-07
1.015 2.31789e-07
1.025 3.14934e-07
1.035 3.16938e-07
1.045 1.24406e-07
1.1 9.09314e-08
1.2 6.992e-08
1.35 2.94971e-08
1.55 2.23853e-08
1.75 1.17114e-08
1.95 9.51702e-09
2.15 1.61194e-09
2.35 9.93698e-13
2.55 7.02827e-13
2.75 2.34997e-11
2.9 4.36554e-09
3 2.73374e-10
3.1 2.46225e-09
3.2 3.22297e-09
3.3 1.3727e-10
3.4 1.79554e-14
3.5 0
3.6 4.99506e-14
3.7 2.75855e-15
3.875 1.71157e-09
4.125 1.88569e-10
4.375 3.21023e-11
4.625 9.06724e-13
4.875 0

Cocktail phiee + phieeeta
x y
0.005 0
0.015 0
0.025 2.23332e-06
0.035 9.42937e-06
0.045 1.21655e-05
0.055 1.19274e-05
0.065 1.06554e-05
0.075 8.9677e-06
0.085 7.7352e-06
0.095 6.73711e-06
0.105 5.78315e-06
0.115 5.05273e-06
0.125 4.2637e-06
0.135 3.71074e-06
0.145 3.28191e-06
0.155 3.05303e-06
0.165 2.68485e-06
0.175 2.42205e-06
0.185 2.07648e-06
0.195 1.83251e-06
0.205 1.59777e-06
0.215 1.37091e-06
0.225 1.2709e-06
0.235 1.10777e-06
0.245 9.42233e-07
0.255 7.37249e-07
0.265 6.88369e-07
0.275 6.60386e-07
0.285 6.17388e-07
0.295 5.13346e-07
0.305 4.68553e-07
0.315 4.07266e-07
0.325 3.40206e-07
0.335 3.55815e-07
0.345 2.67848e-07
0.355 2.43258e-07
0.365 2.17691e-07
0.375 1.69408e-07
0.385 1.35327e-07
0.395 1.18354e-07
0.405 1.40921e-07
0.415 8.8458e-08
0.425 9.773e-08
0.435 6.65768e-08
0.445 9.33983e-08
0.455 6.3194e-08
0.465 8.54377e-08
0.475 8.02384e-08
0.485 1.23762e-07
0.495 8.03526e-08
0.505 1.1016e-07
0.515 1.01983e-07
0.525 1.40485e-07
0.535 1.65076e-07
0.545 1.61138e-07
0.555 2.05852e-07
0.565 2.05282e-07
0.575 2.45712e-07
0.585 2.70419e-07
0.595 3.03067e-07
0.605 3.2378e-07
0.615 3.74789e-07
0.625 4.06461e-07
0.635 4.66173e-07
0.645 5.15853e-07
0.655 5.11496e-07
0.665 6.46686e-07
0.675 7.1836e-07
0.685 8.65739e-07
0.695 9.0706e-07
0.705 1.0975e-06
0.715 1.25297e-06
0.725 1.32982e-06
0.735 1.69126e-06
0.745 1.7839e-06
0.755 2.092e-06
0.765 2.12751e-06
0.775 2.44865e-06
0.785 2.9986e-06
0.795 3.39121e-06
0.805 3.56375e-06
0.815 4.04182e-06
0.825 4.53769e-06
0.835 5.15361e-06
0.845 5.91534e-06
0.855 6.31725e-06
0.865 7.26004e-06
0.875 8.32002e-06
0.885 9.37504e-06
0.895 1.04494e-05
0.905 1.22192e-05
0.915 1.40548e-05
0.925 1.61958e-05
0.935 1.81799e-05
0.945 2.09113e-05
0.955 2.4205e-05
0.965 2.89205e-05
0.975 3.79196e-05
0.985 6.4046e-05
0.995 0.00013276
1.005 0.000225519
1.015 0.000243282
1.025 0.000153932
1.035 5.93765e-05
1.045 1.78199e-05
1.1 1.60714e-06
1.2 2.13963e-07
1.35 6.22176e-08
1.55 2.6382e-08
1.75 9.11982e-09
1.95 6.16513e-09
2.15 3.91481e-09
2.35 1.96495e-09
2.55 2.25363e-09
2.75 1.00387e-09
2.9 4.30582e-10
3 1.14859e-09
3.1 1.34054e-10
3.2 1.36487e-09
3.3 5.36924e-10
3.4 3.67441e-11
3.5 1.01329e-10
3.6 1.01778e-10
3.7 4.40995e-11
3.875 3.124e-10
4.125 1.08835e-10
4.375 6.84632e-11
4.625 2.73102e-10
4.875 6.64831e-11

Cocktail jpsiee
x y
0.005 0
0.015 0
0.025 0
0.035 0
0.045 0
0.055 0
0.065 0
0.075 0
0.085 0
0.095 0
0.105 0
0.115 0
0.125 0
0.135 0
0.145 0
0.155 0
0.165 0
0.175 0
0.185 0
0.195 0
0.205 0
0.215 0
0.225 0
0.235 0
0.245 0
0.255 0
0.265 0
0.275 0
0.285 0
0.295 0
0.305 0
0.315 0
0.325 0
0.335 0
0.345 0
0.355 0
0.365 0
0.375 0
0.385 0
0.395 0
0.405 0
0.415 0
0.425 0
0.435 0
0.445 0
0.455 0
0.465 0
0.475 0
0.485 0
0.495 0
0.505 0
0.515 0
0.525 0
0.535 0
0.545 0
0.555 0
0.565 0
0.575 0
0.585 0
0.595 0
0.605 0
0.615 0
0.625 0
0.635 4.17308e-08
0.645 0
0.655 0
0.665 0
0.675 0
0.685 0
0.695 4.17308e-08
0.705 0
0.715 0
0.725 8.34615e-08
0.735 0
0.745 4.17308e-08
0.755 0
0.765 4.17308e-08
0.775 4.17308e-08
0.785 0
0.795 8.34615e-08
0.805 0
0.815 4.17308e-08
0.825 8.34615e-08
0.835 0
0.845 0
0.855 8.34615e-08
0.865 8.34615e-08
0.875 4.17308e-08
0.885 0
0.895 8.34615e-08
0.905 4.17308e-08
0.915 0
0.925 0
0.935 8.34615e-08
0.945 4.17308e-08
0.955 0
0.965 1.66923e-07
0.975 4.17308e-08
0.985 4.17308e-08
0.995 0
1.005 1.25192e-07
1.015 0
1.025 8.34615e-08
1.035 8.34615e-08
1.045 0
1.1 5.425e-08
1.2 1.04327e-07
1.35 9.59808e-08
1.55 1.21019e-07
1.75 1.29365e-07
1.95 2.02394e-07
2.15 2.37865e-07
2.35 3.29673e-07
2.55 5.98836e-07
2.75 1.21854e-06
2.9 2.67911e-06
3 8.03734e-06
3.1 1.28572e-05
3.2 4.43181e-06
3.3 6.21788e-07
3.4 1.12673e-07
3.5 0
3.6 0
3.7 0
3.875 0
4.125 0
4.375 0
4.625 0
4.875 0

Cocktail ccbar (PYTHIA)
x y
0.005 0
0.015 0
0.025 1.16057e-05
0.035 1.66244e-05
0.045 2.00748e-05
0.055 2.33683e-05
0.065 2.75244e-05
0.075 2.90143e-05
0.085 3.0269e-05
0.095 3.4033e-05
0.105 4.21099e-05
0.115 4.09337e-05
0.125 3.95222e-05
0.135 4.31294e-05
0.145 4.49329e-05
0.155 4.28157e-05
0.165 4.76775e-05
0.175 4.82265e-05
0.185 4.95595e-05
0.195 5.06574e-05
0.205 4.71286e-05
0.215 4.84617e-05
0.225 4.97164e-05
0.235 5.00301e-05
0.245 4.97164e-05
0.255 4.31294e-05
0.265 4.66581e-05
0.275 4.8697e-05
0.285 4.46193e-05
0.295 4.17178e-05
0.305 4.52466e-05
0.315 3.92085e-05
0.325 3.56013e-05
0.335 4.26589e-05
0.345 3.58366e-05
0.355 3.83459e-05
0.365 3.92869e-05
0.375 3.45819e-05
0.385 3.37977e-05
0.395 3.89733e-05
0.405 3.88164e-05
0.415 3.84243e-05
0.425 3.57582e-05
0.435 3.88948e-05
0.445 3.83459e-05
0.455 3.92085e-05
0.465 3.82675e-05
0.475 3.81107e-05
0.485 3.92869e-05
0.495 4.08553e-05
0.505 3.82675e-05
0.515 3.69344e-05
0.525 3.64639e-05
0.535 3.63071e-05
0.545 3.97574e-05
0.555 3.96006e-05
0.565 3.52877e-05
0.575 4.062e-05
0.585 4.07768e-05
0.595 4.17963e-05
0.605 4.08553e-05
0.615 3.99143e-05
0.625 3.97574e-05
0.635 4.17963e-05
0.645 3.92085e-05
0.655 4.21099e-05
0.665 4.12473e-05
0.675 3.99927e-05
0.685 4.01495e-05
0.695 4.01495e-05
0.705 4.14826e-05
0.715 3.95222e-05
0.725 4.05416e-05
0.735 3.63071e-05
0.745 3.67776e-05
0.755 4.04632e-05
0.765 3.91301e-05
0.775 3.88948e-05
0.785 3.64639e-05
0.795 3.75617e-05
0.805 3.7797e-05
0.815 3.70912e-05
0.825 3.72481e-05
0.835 3.7797e-05
0.845 3.78754e-05
0.855 3.34841e-05
0.865 3.43466e-05
0.875 3.59934e-05
0.885 3.48172e-05
0.895 3.84243e-05
0.905 3.33272e-05
0.915 3.16805e-05
0.925 3.32488e-05
0.935 3.30136e-05
0.945 3.01905e-05
0.955 3.19157e-05
0.965 3.31704e-05
0.975 3.01121e-05
0.985 2.94064e-05
0.995 3.01121e-05
1.005 3.08179e-05
1.015 2.8387e-05
1.025 2.83085e-05
1.035 2.64265e-05
1.045 2.82301e-05
1.1 2.37682e-05
1.2 1.94631e-05
1.35 1.46405e-05
1.55 9.81781e-06
1.75 6.32825e-06
1.95 3.99535e-06
2.15 2.52503e-06
2.35 1.7291e-06
2.55 9.52767e-07
2.75 7.48882e-07
2.9 3.60718e-07
3 5.17552e-07
3.1 3.92085e-07
3.2 2.27409e-07
3.3 2.58776e-07
3.4 2.58776e-07
3.5 1.88201e-07
3.6 1.88201e-07
3.7 5.48919e-08
3.875 6.27336e-08
4.125 4.70502e-08
4.375 3.13668e-08
4.625 3.13668e-08
4.875 2.50934e-08

Cocktail bbbar (PYTHIA)
x y
0.005 0
0.015 0
0.025 6.49078e-07
0.035 8.67868e-07
0.045 1.11218e-06
0.055 1.36379e-06
0.065 1.76126e-06
0.075 1.74668e-06
0.085 1.99099e-06
0.095 2.19155e-06
0.105 2.5015e-06
0.115 2.58537e-06
0.125 2.74946e-06
0.135 2.91356e-06
0.145 3.12505e-06
0.155 3.00837e-06
0.165 3.20163e-06
0.175 3.49335e-06
0.185 3.45689e-06
0.195 3.55899e-06
0.205 3.67203e-06
0.215 3.77413e-06
0.225 3.57722e-06
0.235 3.86165e-06
0.245 3.94552e-06
0.255 3.77048e-06
0.265 4.00386e-06
0.275 3.95646e-06
0.285 3.8106e-06
0.295 3.99657e-06
0.305 4.13149e-06
0.315 3.90905e-06
0.325 3.93093e-06
0.335 4.04397e-06
0.345 3.89811e-06
0.355 3.89811e-06
0.365 3.72308e-06
0.375 3.85071e-06
0.385 3.96375e-06
0.395 3.9127e-06
0.405 3.81789e-06
0.415 3.92728e-06
0.425 3.87988e-06
0.435 3.76684e-06
0.445 3.83977e-06
0.455 3.70485e-06
0.465 3.86894e-06
0.475 3.67203e-06
0.485 3.64286e-06
0.495 3.51523e-06
0.505 3.43501e-06
0.515 3.43865e-06
0.525 3.61369e-06
0.535 3.43501e-06
0.545 3.56263e-06
0.555 3.57357e-06
0.565 3.26362e-06
0.575 3.56263e-06
0.585 3.3949e-06
0.595 3.37666e-06
0.605 3.17975e-06
0.615 3.21257e-06
0.625 3.17246e-06
0.635 3.27091e-06
0.645 3.44595e-06
0.655 3.26727e-06
0.665 3.30373e-06
0.675 3.15058e-06
0.685 3.33655e-06
0.695 3.12505e-06
0.705 3.1761e-06
0.715 3.2381e-06
0.725 3.14329e-06
0.735 3.01931e-06
0.745 3.074e-06
0.755 3.21257e-06
0.765 3.48606e-06
0.775 3.20892e-06
0.785 3.22716e-06
0.795 3.0813e-06
0.805 3.13599e-06
0.815 3.04483e-06
0.825 3.05212e-06
0.835 3.15423e-06
0.845 3.16881e-06
0.855 3.10682e-06
0.865 3.20528e-06
0.875 2.97919e-06
0.885 3.21622e-06
0.895 3.0266e-06
0.905 2.99743e-06
0.915 3.05942e-06
0.925 3.08859e-06
0.935 2.93179e-06
0.945 2.92085e-06
0.955 3.21257e-06
0.965 2.96461e-06
0.975 2.89168e-06
0.985 2.97555e-06
0.995 2.97919e-06
1.005 2.74582e-06
1.015 2.95002e-06
1.025 2.98284e-06
1.035 3.06306e-06
1.045 3.04848e-06
1.1 3.06853e-06
1.2 2.86105e-06
1.35 2.75785e-06
1.55 2.46449e-06
1.75 2.1075e-06
1.95 1.75689e-06
2.15 1.43071e-06
2.35 1.12021e-06
2.55 8.52006e-07
2.75 6.60929e-07
2.9 5.29108e-07
3 4.67117e-07
3.1 4.12055e-07
3.2 3.66109e-07
3.3 3.31467e-07
3.4 2.92814e-07
3.5 2.66559e-07
3.6 2.27542e-07
3.7 2.10403e-07
3.875 1.86701e-07
4.125 1.47319e-07
4.375 1.25586e-07
4.625 1.06624e-07
4.875 7.92021e-08

Cocktail with MC@NLO ccbar and bbbar (total)
x y
0.005 0
0.015 0
0.025 0.0041939
0.035 0.01481
0.045 0.019054
0.055 0.017043
0.065 0.0136786
0.075 0.0107397
0.085 0.00774703
0.095 0.00521603
0.105 0.00337856
0.115 0.00213777
0.125 0.00152743
0.135 0.00130521
0.145 0.00116725
0.155 0.00109963
0.165 0.00100365
0.175 0.000912815
0.185 0.000878062
0.195 0.000795361
0.205 0.000724175
0.215 0.000666643
0.225 0.000592773
0.235 0.000551202
0.245 0.000518527
0.255 0.000470671
0.265 0.000450938
0.275 0.000407423
0.285 0.000375515
0.295 0.000359551
0.305 0.000324278
0.315 0.000289748
0.325 0.000274423
0.335 0.000257511
0.345 0.000243634
0.355 0.000223908
0.365 0.000222227
0.375 0.000204814
0.385 0.000187113
0.395 0.000182245
0.405 0.000166543
0.415 0.000158036
0.425 0.000152684
0.435 0.000151334
0.445 0.000142844
0.455 0.000134201
0.465 0.00012571
0.475 0.000134307
0.485 0.000121916
0.495 0.00011289
0.505 0.000114419
0.515 0.000113918
0.525 0.000119659
0.535 0.000112457
0.545 0.000120915
0.555 0.000120894
0.565 0.00012063
0.575 0.000116691
0.585 0.000125037
0.595 0.000120499
0.605 0.000121486
0.615 0.000124425
0.625 0.000116483
0.635 0.000114836
0.645 0.000116059
0.655 0.000123017
0.665 0.000120274
0.675 0.000122847
0.685 0.000128002
0.695 0.000136131
0.705 0.000146442
0.715 0.000154574
0.725 0.000160698
0.735 0.000164494
0.745 0.000185228
0.755 0.000211192
0.765 0.000306439
0.775 0.000383878
0.785 0.000301007
0.795 0.00017924
0.805 0.000123331
0.815 0.000103208
0.825 0.000104514
0.835 9.45192e-05
0.845 8.82612e-05
0.855 8.69683e-05
0.865 8.27872e-05
0.875 8.29956e-05
0.885 7.9891e-05
0.895 7.21877e-05
0.905 7.66424e-05
0.915 7.14779e-05
0.925 8.03047e-05
0.935 7.74042e-05
0.945 8.09964e-05
0.955 8.27312e-05
0.965 9.02331e-05
0.975 9.54879e-05
0.985 0.000115577
0.995 0.00018916
1.005 0.000276206
1.015 0.000294312
1.025 0.000202436
1.035 0.000107721
1.045 6.39356e-05
1.1 3.95716e-05
1.2 3.09109e-05
1.35 2.16704e-05
1.55 1.40818e-05
1.75 8.43282e-06
1.95 5.89143e-06
2.15 3.82914e-06
2.35 2.91623e-06
2.55 2.41201e-06
2.75 2.54585e-06
2.9 3.64928e-06
3 8.89119e-06
3.1 1.35145e-05
3.2 5.13432e-06
3.3 1.13207e-06
3.4 4.7745e-07
3.5 4.29526e-07
3.6 3.0335e-07
3.7 3.63634e-07
3.875 2.3653e-07
4.125 1.70265e-07
4.375 1.48112e-07
4.625 1.06351e-07
4.875 1.08699e-07
