*author: ADLER
*reference: PRC 89,044905 (2014) : 2014
*reference: ARXIV:1312.6676 : 2013
*doi: 10.1103/PhysRevC.89.044905
*status: Encoded 21 APR 2014 by JTM
*title: Transverse-energy distributions at midrapidity in p+p, d+Au, and Au+Au collisions at sqrt{s_{NN}} = 62.4-200 GeV and implications for particle-production models
*inspireId: 1273625
*detector: PHENIX
*experiment: BNL-RHIC-PHENIX

*dataset:
*location: Figure 2 (min bias)
*dscomment: Et EMC distributions for sqrt{s_{NN}}=62.4 GeV Au+Au collisions shown in 5% wide centrality bins.
*yheader: DY/DE_T IN 1/GEV
*xheader: E_T EMC IN GEV
*data: x : y
0.33645 ; 0 +- 0
1.0094 ; 0 +- 0
1.6823 ; 0 +- 0
2.3552 ; 0 +- 0
3.0281 ; 0 +- 0
3.701 ; 0 +- 0
4.3739 ; 0 +- 0
5.0468 ; 0 +- 0
5.7197 ; 0 +- 0
6.3926 ; 0 +- 0
7.0655 ; 0 +- 0
7.7384 ; 0.011792 +- 2.5137e-05
8.4113 ; 0.01163 +- 2.4964e-05
9.0842 ; 0.011264 +- 2.4568e-05
9.7571 ; 0.01085 +- 2.4113e-05
10.43 ; 0.010379 +- 2.3583e-05
11.103 ; 0.0099869 +- 2.3134e-05
11.776 ; 0.0095944 +- 2.2674e-05
12.449 ; 0.009306 +- 2.2331e-05
13.122 ; 0.0089705 +- 2.1925e-05
13.794 ; 0.0086523 +- 2.1532e-05
14.467 ; 0.0083933 +- 2.1208e-05
15.14 ; 0.0080845 +- 2.0814e-05
15.813 ; 0.0078275 +- 2.048e-05
16.486 ; 0.0076045 +- 2.0187e-05
17.159 ; 0.007367 +- 1.9869e-05
17.832 ; 0.0072017 +- 1.9645e-05
18.505 ; 0.0070035 +- 1.9373e-05
19.178 ; 0.0067915 +- 1.9077e-05
19.851 ; 0.0065985 +- 1.8804e-05
20.523 ; 0.0063921 +- 1.8508e-05
21.196 ; 0.0062662 +- 1.8324e-05
21.869 ; 0.0061214 +- 1.8111e-05
22.542 ; 0.0059569 +- 1.7866e-05
23.215 ; 0.005805 +- 1.7637e-05
23.888 ; 0.005697 +- 1.7472e-05
24.561 ; 0.0055763 +- 1.7286e-05
25.234 ; 0.0054158 +- 1.7036e-05
25.907 ; 0.0053393 +- 1.6915e-05
26.58 ; 0.0052347 +- 1.6748e-05
27.252 ; 0.0050852 +- 1.6508e-05
27.925 ; 0.0050012 +- 1.6371e-05
28.598 ; 0.0049428 +- 1.6275e-05
29.271 ; 0.0048138 +- 1.6061e-05
29.944 ; 0.0047428 +- 1.5942e-05
30.617 ; 0.0046711 +- 1.5821e-05
31.29 ; 0.0045687 +- 1.5647e-05
31.963 ; 0.0044933 +- 1.5517e-05
32.636 ; 0.0044105 +- 1.5373e-05
33.309 ; 0.0043269 +- 1.5227e-05
33.981 ; 0.0042941 +- 1.5169e-05
34.654 ; 0.0042115 +- 1.5023e-05
35.327 ; 0.0041536 +- 1.4919e-05
36 ; 0.0040936 +- 1.4811e-05
36.673 ; 0.0040478 +- 1.4728e-05
37.346 ; 0.0039631 +- 1.4573e-05
38.019 ; 0.0039046 +- 1.4465e-05
38.692 ; 0.0038425 +- 1.4349e-05
39.365 ; 0.0038104 +- 1.4289e-05
40.038 ; 0.0037608 +- 1.4196e-05
40.71 ; 0.0037124 +- 1.4104e-05
41.383 ; 0.0036323 +- 1.3951e-05
42.056 ; 0.0036268 +- 1.3941e-05
42.729 ; 0.0035669 +- 1.3825e-05
43.402 ; 0.0035431 +- 1.3779e-05
44.075 ; 0.0034938 +- 1.3683e-05
44.748 ; 0.0034392 +- 1.3575e-05
45.421 ; 0.0034052 +- 1.3508e-05
46.094 ; 0.0033862 +- 1.3471e-05
46.767 ; 0.0033331 +- 1.3365e-05
47.439 ; 0.0032983 +- 1.3295e-05
48.112 ; 0.0032701 +- 1.3238e-05
48.785 ; 0.0032181 +- 1.3132e-05
49.458 ; 0.0031866 +- 1.3067e-05
50.131 ; 0.0031612 +- 1.3015e-05
50.804 ; 0.0031657 +- 1.3025e-05
51.477 ; 0.0031143 +- 1.2918e-05
52.15 ; 0.003044 +- 1.2772e-05
52.823 ; 0.0030356 +- 1.2754e-05
53.496 ; 0.0029915 +- 1.2661e-05
54.168 ; 0.0029742 +- 1.2624e-05
54.841 ; 0.0029421 +- 1.2556e-05
55.514 ; 0.002905 +- 1.2477e-05
56.187 ; 0.0028893 +- 1.2443e-05
56.86 ; 0.0028615 +- 1.2383e-05
57.533 ; 0.0028401 +- 1.2337e-05
58.206 ; 0.002797 +- 1.2243e-05
58.879 ; 0.0027988 +- 1.2247e-05
59.552 ; 0.0027609 +- 1.2163e-05
60.225 ; 0.0027754 +- 1.2195e-05
60.897 ; 0.0027406 +- 1.2118e-05
61.57 ; 0.0026888 +- 1.2003e-05
62.243 ; 0.0026846 +- 1.1994e-05
62.916 ; 0.0026644 +- 1.1949e-05
63.589 ; 0.0026352 +- 1.1883e-05
64.262 ; 0.0026226 +- 1.1855e-05
64.935 ; 0.0026073 +- 1.182e-05
65.608 ; 0.0025723 +- 1.174e-05
66.281 ; 0.0025469 +- 1.1682e-05
66.954 ; 0.0025306 +- 1.1645e-05
67.626 ; 0.0025144 +- 1.1608e-05
68.299 ; 0.0024929 +- 1.1558e-05
68.972 ; 0.0024849 +- 1.1539e-05
69.645 ; 0.0024581 +- 1.1477e-05
70.318 ; 0.0024523 +- 1.1463e-05
70.991 ; 0.0023993 +- 1.1339e-05
71.664 ; 0.0024083 +- 1.136e-05
72.337 ; 0.0023881 +- 1.1312e-05
73.01 ; 0.0023627 +- 1.1252e-05
73.683 ; 0.0023744 +- 1.128e-05
74.355 ; 0.0023454 +- 1.1211e-05
75.028 ; 0.0023447 +- 1.1209e-05
75.701 ; 0.002322 +- 1.1155e-05
76.374 ; 0.0023129 +- 1.1133e-05
77.047 ; 0.0022823 +- 1.1059e-05
77.72 ; 0.0022656 +- 1.1018e-05
78.393 ; 0.0022331 +- 1.0939e-05
79.066 ; 0.0022351 +- 1.0944e-05
79.739 ; 0.002213 +- 1.089e-05
80.412 ; 0.0022103 +- 1.0883e-05
81.084 ; 0.0022052 +- 1.0871e-05
81.757 ; 0.0021831 +- 1.0816e-05
82.43 ; 0.0021594 +- 1.0757e-05
83.103 ; 0.00217 +- 1.0783e-05
83.776 ; 0.0021354 +- 1.0697e-05
84.449 ; 0.0021196 +- 1.0657e-05
85.122 ; 0.0021168 +- 1.065e-05
85.795 ; 0.0020906 +- 1.0584e-05
86.468 ; 0.0020941 +- 1.0593e-05
87.141 ; 0.0020942 +- 1.0593e-05
87.813 ; 0.0020795 +- 1.0556e-05
88.486 ; 0.0020568 +- 1.0498e-05
89.159 ; 0.0020598 +- 1.0506e-05
89.832 ; 0.0020297 +- 1.0429e-05
90.505 ; 0.0020195 +- 1.0403e-05
91.178 ; 0.0020116 +- 1.0382e-05
91.851 ; 0.0019967 +- 1.0344e-05
92.524 ; 0.0019784 +- 1.0296e-05
93.197 ; 0.0019795 +- 1.0299e-05
93.87 ; 0.0019571 +- 1.0241e-05
94.542 ; 0.0019602 +- 1.0249e-05
95.215 ; 0.0019322 +- 1.0175e-05
95.888 ; 0.0019373 +- 1.0189e-05
96.561 ; 0.0019176 +- 1.0137e-05
97.234 ; 0.0019181 +- 1.0138e-05
97.907 ; 0.0019086 +- 1.0113e-05
98.58 ; 0.0018966 +- 1.0081e-05
99.253 ; 0.0018973 +- 1.0083e-05
99.926 ; 0.0018824 +- 1.0044e-05
100.6 ; 0.0018569 +- 9.9753e-06
101.27 ; 0.0018517 +- 9.9612e-06
101.94 ; 0.0018403 +- 9.9306e-06
102.62 ; 0.001834 +- 9.9136e-06
103.29 ; 0.0018366 +- 9.9206e-06
103.96 ; 0.0018087 +- 9.8449e-06
104.64 ; 0.0018073 +- 9.8409e-06
105.31 ; 0.0017933 +- 9.8028e-06
105.98 ; 0.0017889 +- 9.7909e-06
106.65 ; 0.0017912 +- 9.7971e-06
107.33 ; 0.00177 +- 9.739e-06
108 ; 0.0017716 +- 9.7434e-06
108.67 ; 0.00175 +- 9.6839e-06
109.35 ; 0.0017435 +- 9.6659e-06
110.02 ; 0.0017533 +- 9.6929e-06
110.69 ; 0.0017411 +- 9.6592e-06
111.36 ; 0.0017297 +- 9.6274e-06
112.04 ; 0.0017363 +- 9.6457e-06
112.71 ; 0.0016958 +- 9.5327e-06
113.38 ; 0.0016889 +- 9.5132e-06
114.06 ; 0.0016829 +- 9.4963e-06
114.73 ; 0.0016766 +- 9.4786e-06
115.4 ; 0.0016822 +- 9.4943e-06
116.08 ; 0.001677 +- 9.4798e-06
116.75 ; 0.0016599 +- 9.4312e-06
117.42 ; 0.0016595 +- 9.43e-06
118.09 ; 0.0016565 +- 9.4215e-06
118.77 ; 0.0016389 +- 9.3715e-06
119.44 ; 0.0016315 +- 9.3503e-06
120.11 ; 0.00163 +- 9.346e-06
120.79 ; 0.0016162 +- 9.3063e-06
121.46 ; 0.0016165 +- 9.3072e-06
122.13 ; 0.0015986 +- 9.2554e-06
122.8 ; 0.0016001 +- 9.2599e-06
123.48 ; 0.0015812 +- 9.2049e-06
124.15 ; 0.0016086 +- 9.2844e-06
124.82 ; 0.0015946 +- 9.2438e-06
125.5 ; 0.0015589 +- 9.1399e-06
126.17 ; 0.0015635 +- 9.1534e-06
126.84 ; 0.0015673 +- 9.1644e-06
127.51 ; 0.0015422 +- 9.0908e-06
128.19 ; 0.0015588 +- 9.1394e-06
128.86 ; 0.0015334 +- 9.0648e-06
129.53 ; 0.0015361 +- 9.0726e-06
130.21 ; 0.0014984 +- 8.9606e-06
130.88 ; 0.0015129 +- 9.0038e-06
131.55 ; 0.0015188 +- 9.0215e-06
132.22 ; 0.0015123 +- 9.0022e-06
132.9 ; 0.0014962 +- 8.9542e-06
133.57 ; 0.0014864 +- 8.9248e-06
134.24 ; 0.0014874 +- 8.9277e-06
134.92 ; 0.0014857 +- 8.9227e-06
135.59 ; 0.0014768 +- 8.8958e-06
136.26 ; 0.0014772 +- 8.8971e-06
136.94 ; 0.0014617 +- 8.8504e-06
137.61 ; 0.0014758 +- 8.8928e-06
138.28 ; 0.0014624 +- 8.8525e-06
138.95 ; 0.0014502 +- 8.8152e-06
139.63 ; 0.0014272 +- 8.7451e-06
140.3 ; 0.0014504 +- 8.8159e-06
140.97 ; 0.0014373 +- 8.7761e-06
141.65 ; 0.0014219 +- 8.7288e-06
142.32 ; 0.0014189 +- 8.7196e-06
142.99 ; 0.0014157 +- 8.7099e-06
143.66 ; 0.0014153 +- 8.7087e-06
144.34 ; 0.0014111 +- 8.6959e-06
145.01 ; 0.0014056 +- 8.6788e-06
145.68 ; 0.0013818 +- 8.6049e-06
146.36 ; 0.0013917 +- 8.6357e-06
147.03 ; 0.0013958 +- 8.6485e-06
147.7 ; 0.0013916 +- 8.6354e-06
148.37 ; 0.0013847 +- 8.6139e-06
149.05 ; 0.0013855 +- 8.6164e-06
149.72 ; 0.0013708 +- 8.5708e-06
150.39 ; 0.0013623 +- 8.5441e-06
151.07 ; 0.0013583 +- 8.5315e-06
151.74 ; 0.0013406 +- 8.4758e-06
152.41 ; 0.0013617 +- 8.5421e-06
153.08 ; 0.0013298 +- 8.4415e-06
153.76 ; 0.0013329 +- 8.4514e-06
154.43 ; 0.0013314 +- 8.4466e-06
155.1 ; 0.0013347 +- 8.4571e-06
155.78 ; 0.0013243 +- 8.4241e-06
156.45 ; 0.0013202 +- 8.4108e-06
157.12 ; 0.0013189 +- 8.4067e-06
157.8 ; 0.0013106 +- 8.3802e-06
158.47 ; 0.0012945 +- 8.3287e-06
159.14 ; 0.0012903 +- 8.315e-06
159.81 ; 0.0012957 +- 8.3325e-06
160.49 ; 0.0012996 +- 8.345e-06
161.16 ; 0.0012823 +- 8.2895e-06
161.83 ; 0.0012779 +- 8.2752e-06
162.51 ; 0.0012627 +- 8.2256e-06
163.18 ; 0.001274 +- 8.2626e-06
163.85 ; 0.001278 +- 8.2754e-06
164.52 ; 0.0012748 +- 8.2652e-06
165.2 ; 0.0012723 +- 8.257e-06
165.87 ; 0.0012564 +- 8.2052e-06
166.54 ; 0.0012416 +- 8.1568e-06
167.22 ; 0.0012426 +- 8.1601e-06
167.89 ; 0.001243 +- 8.1615e-06
168.56 ; 0.0012387 +- 8.1472e-06
169.23 ; 0.0012492 +- 8.1815e-06
169.91 ; 0.0012339 +- 8.1314e-06
170.58 ; 0.0012442 +- 8.1652e-06
171.25 ; 0.0012327 +- 8.1275e-06
171.93 ; 0.0012376 +- 8.1437e-06
172.6 ; 0.00123 +- 8.1185e-06
173.27 ; 0.0011995 +- 8.0174e-06
173.94 ; 0.0011982 +- 8.0129e-06
174.62 ; 0.001221 +- 8.0889e-06
175.29 ; 0.0011957 +- 8.0045e-06
175.96 ; 0.0011983 +- 8.0133e-06
176.64 ; 0.0011942 +- 7.9996e-06
177.31 ; 0.0011851 +- 7.9691e-06
177.98 ; 0.0011871 +- 7.9757e-06
178.65 ; 0.0011805 +- 7.9536e-06
179.33 ; 0.0011706 +- 7.9201e-06
180 ; 0.001175 +- 7.9349e-06
180.67 ; 0.0011661 +- 7.9049e-06
181.35 ; 0.0011523 +- 7.8579e-06
182.02 ; 0.0011603 +- 7.8852e-06
182.69 ; 0.0011554 +- 7.8684e-06
183.37 ; 0.0011595 +- 7.8825e-06
184.04 ; 0.0011437 +- 7.8288e-06
184.71 ; 0.0011423 +- 7.8238e-06
185.38 ; 0.0011582 +- 7.8779e-06
186.06 ; 0.0011405 +- 7.8177e-06
186.73 ; 0.0011259 +- 7.7674e-06
187.4 ; 0.0011432 +- 7.8269e-06
188.08 ; 0.0011292 +- 7.7789e-06
188.75 ; 0.0011254 +- 7.7656e-06
189.42 ; 0.0011278 +- 7.7741e-06
190.09 ; 0.0011233 +- 7.7586e-06
190.77 ; 0.0011329 +- 7.7914e-06
191.44 ; 0.001119 +- 7.7437e-06
192.11 ; 0.0011063 +- 7.6997e-06
192.79 ; 0.0011118 +- 7.7187e-06
193.46 ; 0.0010954 +- 7.6614e-06
194.13 ; 0.0011181 +- 7.7406e-06
194.8 ; 0.0010998 +- 7.6769e-06
195.48 ; 0.0010887 +- 7.6381e-06
196.15 ; 0.0010894 +- 7.6405e-06
196.82 ; 0.0010983 +- 7.6715e-06
197.5 ; 0.0010762 +- 7.594e-06
198.17 ; 0.001067 +- 7.5616e-06
198.84 ; 0.0010742 +- 7.587e-06
199.51 ; 0.0010668 +- 7.5608e-06
200.19 ; 0.0010706 +- 7.5743e-06
200.86 ; 0.0010652 +- 7.5551e-06
201.53 ; 0.0010728 +- 7.582e-06
202.21 ; 0.0010692 +- 7.5692e-06
202.88 ; 0.0010731 +- 7.583e-06
203.55 ; 0.0010409 +- 7.4683e-06
204.23 ; 0.0010688 +- 7.5678e-06
204.9 ; 0.0010472 +- 7.491e-06
205.57 ; 0.0010373 +- 7.4556e-06
206.24 ; 0.0010507 +- 7.5036e-06
206.92 ; 0.0010346 +- 7.446e-06
207.59 ; 0.0010397 +- 7.4641e-06
208.26 ; 0.0010348 +- 7.4464e-06
208.94 ; 0.0010268 +- 7.4178e-06
209.61 ; 0.0010331 +- 7.4406e-06
210.28 ; 0.0010214 +- 7.3982e-06
210.95 ; 0.0010241 +- 7.4081e-06
211.63 ; 0.0010158 +- 7.378e-06
212.3 ; 0.0010172 +- 7.3829e-06
212.97 ; 0.0010067 +- 7.3447e-06
213.65 ; 0.0010189 +- 7.3891e-06
214.32 ; 0.0010212 +- 7.3974e-06
214.99 ; 0.00099762 +- 7.3115e-06
215.66 ; 0.0010096 +- 7.3552e-06
216.34 ; 0.00099848 +- 7.3147e-06
217.01 ; 0.001 +- 7.3204e-06
217.68 ; 0.00099274 +- 7.2937e-06
218.36 ; 0.0009973 +- 7.3104e-06
219.03 ; 0.00097736 +- 7.2369e-06
219.7 ; 0.00098085 +- 7.2498e-06
220.37 ; 0.00097125 +- 7.2143e-06
221.05 ; 0.0009742 +- 7.2252e-06
221.72 ; 0.00097945 +- 7.2447e-06
222.39 ; 0.00096268 +- 7.1824e-06
223.07 ; 0.00097967 +- 7.2455e-06
223.74 ; 0.0009622 +- 7.1806e-06
224.41 ; 0.00095791 +- 7.1646e-06
225.09 ; 0.00096155 +- 7.1782e-06
225.76 ; 0.000957 +- 7.1612e-06
226.43 ; 0.00095979 +- 7.1716e-06
227.1 ; 0.00094467 +- 7.1149e-06
227.78 ; 0.00094843 +- 7.129e-06
228.45 ; 0.00094923 +- 7.132e-06
229.12 ; 0.00095041 +- 7.1365e-06
229.8 ; 0.00094634 +- 7.1211e-06
230.47 ; 0.0009435 +- 7.1105e-06
231.14 ; 0.00093278 +- 7.07e-06
231.81 ; 0.00093605 +- 7.0823e-06
232.49 ; 0.00093573 +- 7.0811e-06
233.16 ; 0.00093932 +- 7.0947e-06
233.83 ; 0.00093878 +- 7.0927e-06
234.51 ; 0.00092056 +- 7.0235e-06
235.18 ; 0.00092356 +- 7.0349e-06
235.85 ; 0.00091852 +- 7.0157e-06
236.52 ; 0.00092083 +- 7.0245e-06
237.2 ; 0.00091842 +- 7.0153e-06
237.87 ; 0.00090009 +- 6.945e-06
238.54 ; 0.00090502 +- 6.964e-06
239.22 ; 0.00091526 +- 7.0032e-06
239.89 ; 0.00091863 +- 7.0161e-06
240.56 ; 0.0009069 +- 6.9712e-06
241.23 ; 0.00089966 +- 6.9433e-06
241.91 ; 0.00089286 +- 6.917e-06
242.58 ; 0.00088616 +- 6.891e-06
243.25 ; 0.00088996 +- 6.9058e-06
243.93 ; 0.00089489 +- 6.9249e-06
244.6 ; 0.00090507 +- 6.9642e-06
245.27 ; 0.00090373 +- 6.959e-06
245.94 ; 0.00089002 +- 6.906e-06
246.62 ; 0.00087839 +- 6.8607e-06
247.29 ; 0.00088 +- 6.867e-06
247.96 ; 0.00088289 +- 6.8783e-06
248.64 ; 0.00087941 +- 6.8647e-06
249.31 ; 0.00087174 +- 6.8347e-06
249.98 ; 0.00086906 +- 6.8242e-06
250.66 ; 0.00086553 +- 6.8103e-06
251.33 ; 0.00086644 +- 6.8139e-06
252 ; 0.00087603 +- 6.8515e-06
252.67 ; 0.00086617 +- 6.8129e-06
253.35 ; 0.00086087 +- 6.792e-06
254.02 ; 0.00087019 +- 6.8286e-06
254.69 ; 0.00085717 +- 6.7774e-06
255.37 ; 0.00085417 +- 6.7655e-06
256.04 ; 0.00084763 +- 6.7395e-06
256.71 ; 0.00084179 +- 6.7163e-06
257.38 ; 0.00084329 +- 6.7223e-06
258.06 ; 0.00084522 +- 6.7299e-06
258.73 ; 0.00084581 +- 6.7323e-06
259.4 ; 0.00084463 +- 6.7276e-06
260.08 ; 0.0008307 +- 6.6719e-06
260.75 ; 0.00083557 +- 6.6914e-06
261.42 ; 0.0008233 +- 6.6421e-06
262.09 ; 0.00083831 +- 6.7024e-06
262.77 ; 0.00082909 +- 6.6654e-06
263.44 ; 0.00082389 +- 6.6445e-06
264.11 ; 0.00082041 +- 6.6304e-06
264.79 ; 0.00083418 +- 6.6859e-06
265.46 ; 0.0008225 +- 6.6389e-06
266.13 ; 0.00082582 +- 6.6523e-06
266.8 ; 0.00081419 +- 6.6053e-06
267.48 ; 0.00081333 +- 6.6018e-06
268.15 ; 0.00081119 +- 6.5931e-06
268.82 ; 0.00081735 +- 6.6181e-06
269.5 ; 0.00081655 +- 6.6148e-06
270.17 ; 0.00081387 +- 6.604e-06
270.84 ; 0.00080481 +- 6.5671e-06
271.52 ; 0.00080283 +- 6.559e-06
272.19 ; 0.00079479 +- 6.5261e-06
272.86 ; 0.00079897 +- 6.5432e-06
273.53 ; 0.00078392 +- 6.4813e-06
274.21 ; 0.00078252 +- 6.4755e-06
274.88 ; 0.00078386 +- 6.4811e-06
275.55 ; 0.00078579 +- 6.489e-06
276.23 ; 0.00078408 +- 6.482e-06
276.9 ; 0.00078574 +- 6.4888e-06
277.57 ; 0.00077749 +- 6.4547e-06
278.24 ; 0.00078161 +- 6.4718e-06
278.92 ; 0.0007942 +- 6.5237e-06
279.59 ; 0.00077695 +- 6.4524e-06
280.26 ; 0.00077759 +- 6.4551e-06
280.94 ; 0.00076838 +- 6.4167e-06
281.61 ; 0.00075626 +- 6.366e-06
282.28 ; 0.00077556 +- 6.4466e-06
282.95 ; 0.00076623 +- 6.4078e-06
283.63 ; 0.00075841 +- 6.375e-06
284.3 ; 0.00076093 +- 6.3856e-06
284.97 ; 0.00076194 +- 6.3898e-06
285.65 ; 0.00076221 +- 6.391e-06
286.32 ; 0.00076012 +- 6.3822e-06
286.99 ; 0.00075423 +- 6.3574e-06
287.66 ; 0.00075053 +- 6.3418e-06
288.34 ; 0.00076055 +- 6.384e-06
289.01 ; 0.0007478 +- 6.3302e-06
289.68 ; 0.00074158 +- 6.3039e-06
290.36 ; 0.0007456 +- 6.3209e-06
291.03 ; 0.00074683 +- 6.3261e-06
291.7 ; 0.00074158 +- 6.3039e-06
292.38 ; 0.00074292 +- 6.3096e-06
293.05 ; 0.00073922 +- 6.2938e-06
293.72 ; 0.00072744 +- 6.2434e-06
294.39 ; 0.00073992 +- 6.2968e-06
295.07 ; 0.00072776 +- 6.2448e-06
295.74 ; 0.00072958 +- 6.2526e-06
296.41 ; 0.00072792 +- 6.2455e-06
297.09 ; 0.0007195 +- 6.2093e-06
297.76 ; 0.00072368 +- 6.2273e-06
298.43 ; 0.00072251 +- 6.2223e-06
299.1 ; 0.00072272 +- 6.2232e-06
299.78 ; 0.00071313 +- 6.1817e-06
300.45 ; 0.00071715 +- 6.1991e-06
301.12 ; 0.00071286 +- 6.1806e-06
301.8 ; 0.00071602 +- 6.1943e-06
302.47 ; 0.0007075 +- 6.1573e-06
303.14 ; 0.00071082 +- 6.1717e-06
303.81 ; 0.00070648 +- 6.1529e-06
304.49 ; 0.00070595 +- 6.1505e-06
305.16 ; 0.00069898 +- 6.1201e-06
305.83 ; 0.00070938 +- 6.1655e-06
306.51 ; 0.00071115 +- 6.1731e-06
307.18 ; 0.00069587 +- 6.1065e-06
307.85 ; 0.00069855 +- 6.1182e-06
308.52 ; 0.00069721 +- 6.1124e-06
309.2 ; 0.00069732 +- 6.1128e-06
309.87 ; 0.00070509 +- 6.1468e-06
310.54 ; 0.0006955 +- 6.1049e-06
311.22 ; 0.00068189 +- 6.0448e-06
311.89 ; 0.00068307 +- 6.05e-06
312.56 ; 0.0006858 +- 6.0621e-06
313.23 ; 0.00067176 +- 5.9998e-06
313.91 ; 0.00068966 +- 6.0792e-06
314.58 ; 0.00068291 +- 6.0493e-06
315.25 ; 0.00068714 +- 6.0681e-06
315.93 ; 0.00066865 +- 5.9859e-06
316.6 ; 0.00067664 +- 6.0215e-06
317.27 ; 0.0006672 +- 5.9794e-06
317.95 ; 0.00066795 +- 5.9827e-06
318.62 ; 0.00067583 +- 6.0179e-06
319.29 ; 0.00064722 +- 5.8891e-06
319.96 ; 0.00066517 +- 5.9703e-06
320.64 ; 0.00066924 +- 5.9885e-06
321.31 ; 0.00066056 +- 5.9495e-06
321.98 ; 0.00065949 +- 5.9447e-06
322.66 ; 0.00066008 +- 5.9474e-06
323.33 ; 0.00066067 +- 5.95e-06
324 ; 0.00064952 +- 5.8996e-06
324.67 ; 0.00065397 +- 5.9198e-06
325.35 ; 0.00065333 +- 5.9169e-06
326.02 ; 0.00065568 +- 5.9275e-06
326.69 ; 0.00064984 +- 5.9011e-06
327.37 ; 0.00064797 +- 5.8926e-06
328.04 ; 0.00063988 +- 5.8556e-06
328.71 ; 0.00064282 +- 5.8691e-06
329.38 ; 0.00064609 +- 5.884e-06
330.06 ; 0.00063821 +- 5.848e-06
330.73 ; 0.00063205 +- 5.8197e-06
331.4 ; 0.00063194 +- 5.8192e-06
332.08 ; 0.00062396 +- 5.7824e-06
332.75 ; 0.00062723 +- 5.7975e-06
333.42 ; 0.00063661 +- 5.8407e-06
334.09 ; 0.00063044 +- 5.8123e-06
334.77 ; 0.00063382 +- 5.8279e-06
335.44 ; 0.00062718 +- 5.7972e-06
336.11 ; 0.00061356 +- 5.734e-06
336.79 ; 0.00061453 +- 5.7385e-06
337.46 ; 0.00062214 +- 5.7739e-06
338.13 ; 0.00061785 +- 5.754e-06
338.81 ; 0.00061233 +- 5.7282e-06
339.48 ; 0.00061528 +- 5.742e-06
340.15 ; 0.00062198 +- 5.7732e-06
340.82 ; 0.00060451 +- 5.6915e-06
341.5 ; 0.00060263 +- 5.6827e-06
342.17 ; 0.00060622 +- 5.6996e-06
342.84 ; 0.00060537 +- 5.6956e-06
343.52 ; 0.00059958 +- 5.6683e-06
344.19 ; 0.00059711 +- 5.6566e-06
344.86 ; 0.00058688 +- 5.6079e-06
345.53 ; 0.00060108 +- 5.6754e-06
346.21 ; 0.00060338 +- 5.6862e-06
346.88 ; 0.00059422 +- 5.6429e-06
347.55 ; 0.00058361 +- 5.5923e-06
348.23 ; 0.00060574 +- 5.6973e-06
348.9 ; 0.00060719 +- 5.7041e-06
349.57 ; 0.00059068 +- 5.6261e-06
350.24 ; 0.00058329 +- 5.5907e-06
350.92 ; 0.00058366 +- 5.5925e-06
351.59 ; 0.00058816 +- 5.6141e-06
352.26 ; 0.0005834 +- 5.5912e-06
352.94 ; 0.00057423 +- 5.5472e-06
353.61 ; 0.00057246 +- 5.5386e-06
354.28 ; 0.00056501 +- 5.5025e-06
354.95 ; 0.00057445 +- 5.5482e-06
355.63 ; 0.00057777 +- 5.5642e-06
356.3 ; 0.00056818 +- 5.5178e-06
356.97 ; 0.00056694 +- 5.5119e-06
357.65 ; 0.00057193 +- 5.536e-06
358.32 ; 0.00055435 +- 5.4503e-06
358.99 ; 0.00056362 +- 5.4957e-06
359.67 ; 0.00056121 +- 5.4839e-06
360.34 ; 0.00055955 +- 5.4758e-06
361.01 ; 0.00056748 +- 5.5145e-06
361.68 ; 0.00054915 +- 5.4247e-06
362.36 ; 0.00056314 +- 5.4933e-06
363.03 ; 0.00055451 +- 5.4511e-06
363.7 ; 0.00056067 +- 5.4813e-06
364.38 ; 0.00055585 +- 5.4577e-06
365.05 ; 0.00055033 +- 5.4305e-06
365.72 ; 0.00053988 +- 5.3787e-06
366.39 ; 0.00054647 +- 5.4114e-06
367.07 ; 0.00054444 +- 5.4013e-06
367.74 ; 0.00053967 +- 5.3776e-06
368.41 ; 0.00053576 +- 5.3581e-06
369.09 ; 0.00054085 +- 5.3835e-06
369.76 ; 0.00053511 +- 5.3549e-06
370.43 ; 0.00052734 +- 5.3159e-06
371.1 ; 0.00052509 +- 5.3045e-06
371.78 ; 0.00052413 +- 5.2996e-06
372.45 ; 0.00052809 +- 5.3196e-06
373.12 ; 0.00052059 +- 5.2817e-06
373.8 ; 0.00053018 +- 5.3302e-06
374.47 ; 0.00051888 +- 5.273e-06
375.14 ; 0.00051529 +- 5.2547e-06
375.81 ; 0.00051459 +- 5.2512e-06
376.49 ; 0.00051132 +- 5.2345e-06
377.16 ; 0.00050929 +- 5.2241e-06
377.83 ; 0.00050661 +- 5.2103e-06
378.51 ; 0.00050971 +- 5.2263e-06
379.18 ; 0.00050591 +- 5.2067e-06
379.85 ; 0.0005073 +- 5.2139e-06
380.52 ; 0.00050044 +- 5.1785e-06
381.2 ; 0.00048549 +- 5.1006e-06
381.87 ; 0.00049616 +- 5.1563e-06
382.54 ; 0.00048924 +- 5.1202e-06
383.22 ; 0.00048774 +- 5.1124e-06
383.89 ; 0.00048871 +- 5.1174e-06
384.56 ; 0.00048635 +- 5.1051e-06
385.24 ; 0.00048903 +- 5.1191e-06
385.91 ; 0.00048206 +- 5.0825e-06
386.58 ; 0.00047922 +- 5.0675e-06
387.25 ; 0.00047413 +- 5.0405e-06
387.93 ; 0.00047344 +- 5.0368e-06
388.6 ; 0.00047595 +- 5.0502e-06
389.27 ; 0.00047628 +- 5.0519e-06
389.95 ; 0.00046165 +- 4.9737e-06
390.62 ; 0.00046041 +- 4.9671e-06
391.29 ; 0.00046245 +- 4.9781e-06
391.96 ; 0.00045891 +- 4.959e-06
392.64 ; 0.00046615 +- 4.9979e-06
393.31 ; 0.00045752 +- 4.9515e-06
393.98 ; 0.00045018 +- 4.9116e-06
394.66 ; 0.00044616 +- 4.8896e-06
395.33 ; 0.00044552 +- 4.8861e-06
396 ; 0.00044825 +- 4.901e-06
396.67 ; 0.00043791 +- 4.8442e-06
397.35 ; 0.00044327 +- 4.8737e-06
398.02 ; 0.00043646 +- 4.8362e-06
398.69 ; 0.00043614 +- 4.8344e-06
399.37 ; 0.00042446 +- 4.7692e-06
400.04 ; 0.00042526 +- 4.7737e-06
400.71 ; 0.00042982 +- 4.7992e-06
401.38 ; 0.00043132 +- 4.8076e-06
402.06 ; 0.00041567 +- 4.7196e-06
402.73 ; 0.0004146 +- 4.7135e-06
403.4 ; 0.00040924 +- 4.6829e-06
404.08 ; 0.00041224 +- 4.7e-06
404.75 ; 0.0004139 +- 4.7095e-06
405.42 ; 0.00039992 +- 4.6293e-06
406.1 ; 0.00039981 +- 4.6286e-06
406.77 ; 0.00039799 +- 4.6181e-06
407.44 ; 0.0003944 +- 4.5972e-06
408.11 ; 0.00038936 +- 4.5677e-06
408.79 ; 0.00038432 +- 4.5381e-06
409.46 ; 0.00039064 +- 4.5753e-06
410.13 ; 0.00038722 +- 4.5552e-06
410.81 ; 0.00038068 +- 4.5165e-06
411.48 ; 0.00037848 +- 4.5035e-06
412.15 ; 0.00037719 +- 4.4958e-06
412.82 ; 0.00037548 +- 4.4856e-06
413.5 ; 0.00036905 +- 4.447e-06
414.17 ; 0.00037301 +- 4.4709e-06
414.84 ; 0.00036739 +- 4.437e-06
415.52 ; 0.00036069 +- 4.3964e-06
416.19 ; 0.00036723 +- 4.436e-06
416.86 ; 0.00035571 +- 4.3659e-06
417.53 ; 0.00035469 +- 4.3596e-06
418.21 ; 0.00034585 +- 4.305e-06
418.88 ; 0.00034145 +- 4.2775e-06
419.55 ; 0.00034477 +- 4.2983e-06
420.23 ; 0.0003406 +- 4.2722e-06
420.9 ; 0.00034531 +- 4.3016e-06
421.57 ; 0.00033256 +- 4.2214e-06
422.24 ; 0.00032597 +- 4.1794e-06
422.92 ; 0.0003325 +- 4.2211e-06
423.59 ; 0.000322 +- 4.1539e-06
424.26 ; 0.00032093 +- 4.147e-06
424.94 ; 0.00031653 +- 4.1185e-06
425.61 ; 0.00032564 +- 4.1773e-06
426.28 ; 0.00031621 +- 4.1164e-06
426.96 ; 0.00031064 +- 4.08e-06
427.63 ; 0.00031182 +- 4.0877e-06
428.3 ; 0.00030716 +- 4.057e-06
428.97 ; 0.000307 +- 4.056e-06
429.65 ; 0.00029435 +- 3.9715e-06
430.32 ; 0.00029408 +- 3.9697e-06
430.99 ; 0.00029189 +- 3.9549e-06
431.67 ; 0.00029022 +- 3.9436e-06
432.34 ; 0.00028744 +- 3.9246e-06
433.01 ; 0.00028299 +- 3.8941e-06
433.68 ; 0.00027388 +- 3.831e-06
434.36 ; 0.00027645 +- 3.8489e-06
435.03 ; 0.00027195 +- 3.8174e-06
435.7 ; 0.00027152 +- 3.8144e-06
436.38 ; 0.00026316 +- 3.7553e-06
437.05 ; 0.00025941 +- 3.7284e-06
437.72 ; 0.00025813 +- 3.7191e-06
438.39 ; 0.00025673 +- 3.7091e-06
439.07 ; 0.00025512 +- 3.6975e-06
439.74 ; 0.00024221 +- 3.6027e-06
440.41 ; 0.000245 +- 3.6233e-06
441.09 ; 0.00023444 +- 3.5444e-06
441.76 ; 0.00024157 +- 3.5979e-06
442.43 ; 0.00023417 +- 3.5424e-06
443.1 ; 0.00023401 +- 3.5412e-06
443.78 ; 0.00022855 +- 3.4996e-06
444.45 ; 0.00022281 +- 3.4554e-06
445.12 ; 0.00023005 +- 3.511e-06
445.8 ; 0.00022244 +- 3.4525e-06
446.47 ; 0.00021724 +- 3.4119e-06
447.14 ; 0.00021285 +- 3.3772e-06
447.81 ; 0.00021751 +- 3.414e-06
448.49 ; 0.00021343 +- 3.3819e-06
449.16 ; 0.00020357 +- 3.3029e-06
449.83 ; 0.00020245 +- 3.2937e-06
450.51 ; 0.00020031 +- 3.2762e-06
451.18 ; 0.00019779 +- 3.2556e-06
451.85 ; 0.00019093 +- 3.1986e-06
452.53 ; 0.00018905 +- 3.1829e-06
453.2 ; 0.00019045 +- 3.1946e-06
453.87 ; 0.00019104 +- 3.1995e-06
454.54 ; 0.00018096 +- 3.114e-06
455.22 ; 0.0001816 +- 3.1195e-06
455.89 ; 0.00017817 +- 3.0899e-06
456.56 ; 0.00017533 +- 3.0652e-06
457.24 ; 0.00017207 +- 3.0365e-06
457.91 ; 0.00017673 +- 3.0774e-06
458.58 ; 0.00016944 +- 3.0133e-06
459.25 ; 0.00016499 +- 2.9734e-06
459.93 ; 0.00015599 +- 2.8912e-06
460.6 ; 0.0001628 +- 2.9536e-06
461.27 ; 0.00016022 +- 2.9302e-06
461.95 ; 0.0001591 +- 2.9198e-06
462.62 ; 0.00014849 +- 2.8208e-06
463.29 ; 0.0001501 +- 2.836e-06
463.96 ; 0.00014843 +- 2.8203e-06
464.64 ; 0.00014152 +- 2.7538e-06
465.31 ; 0.00014184 +- 2.757e-06
465.98 ; 0.00014088 +- 2.7476e-06
466.66 ; 0.00013777 +- 2.7171e-06
467.33 ; 0.00013922 +- 2.7313e-06
468 ; 0.00013005 +- 2.6399e-06
468.67 ; 0.00012823 +- 2.6214e-06
469.35 ; 0.00012721 +- 2.6109e-06
470.02 ; 0.00012164 +- 2.5531e-06
470.69 ; 0.00012137 +- 2.5503e-06
471.37 ; 0.0001166 +- 2.4997e-06
472.04 ; 0.00011355 +- 2.4667e-06
472.71 ; 0.00011869 +- 2.522e-06
473.39 ; 0.00010878 +- 2.4144e-06
474.06 ; 0.00011039 +- 2.4321e-06
474.73 ; 0.00011259 +- 2.4562e-06
475.4 ; 0.00010664 +- 2.3905e-06
476.08 ; 0.00010374 +- 2.3578e-06
476.75 ; 0.00010337 +- 2.3535e-06
477.42 ; 0.0001023 +- 2.3413e-06
478.1 ; 0.00010176 +- 2.3352e-06
478.77 ; 9.8117e-05 +- 2.293e-06
479.44 ; 9.5598e-05 +- 2.2634e-06
480.11 ; 9.1794e-05 +- 2.2179e-06
480.79 ; 9.1847e-05 +- 2.2185e-06
481.46 ; 9.0561e-05 +- 2.2029e-06
482.13 ; 8.7292e-05 +- 2.1628e-06
482.81 ; 8.5738e-05 +- 2.1435e-06
483.48 ; 8.7667e-05 +- 2.1674e-06
484.15 ; 8.2202e-05 +- 2.0988e-06
484.82 ; 8.054e-05 +- 2.0775e-06
485.5 ; 7.7057e-05 +- 2.032e-06
486.17 ; 7.845e-05 +- 2.0503e-06
486.84 ; 7.8183e-05 +- 2.0468e-06
487.52 ; 7.3253e-05 +- 1.9812e-06
488.19 ; 7.4432e-05 +- 1.9971e-06
488.86 ; 7.2717e-05 +- 1.974e-06
489.53 ; 7.0145e-05 +- 1.9388e-06
490.21 ; 6.918e-05 +- 1.9254e-06
490.88 ; 6.784e-05 +- 1.9067e-06
491.55 ; 6.3446e-05 +- 1.8439e-06
492.23 ; 6.5322e-05 +- 1.8709e-06
492.9 ; 6.0928e-05 +- 1.8069e-06
493.57 ; 6.1732e-05 +- 1.8188e-06
494.25 ; 6.0017e-05 +- 1.7933e-06
494.92 ; 5.7605e-05 +- 1.7569e-06
495.59 ; 5.4765e-05 +- 1.7131e-06
496.26 ; 5.1979e-05 +- 1.6689e-06
496.94 ; 5.4712e-05 +- 1.7123e-06
497.61 ; 5.3158e-05 +- 1.6878e-06
498.28 ; 4.9407e-05 +- 1.6271e-06
498.96 ; 4.5763e-05 +- 1.566e-06
499.63 ; 4.8067e-05 +- 1.6049e-06
500.3 ; 4.9139e-05 +- 1.6227e-06
500.97 ; 4.6245e-05 +- 1.5742e-06
501.65 ; 4.3566e-05 +- 1.5279e-06
502.32 ; 4.1905e-05 +- 1.4985e-06
502.99 ; 4.3512e-05 +- 1.527e-06
503.67 ; 4.1637e-05 +- 1.4937e-06
504.34 ; 4.0029e-05 +- 1.4646e-06
505.01 ; 4.1262e-05 +- 1.487e-06
505.68 ; 3.9225e-05 +- 1.4498e-06
506.36 ; 3.7243e-05 +- 1.4127e-06
507.03 ; 3.6492e-05 +- 1.3984e-06
507.7 ; 3.751e-05 +- 1.4178e-06
508.38 ; 3.3706e-05 +- 1.3439e-06
509.05 ; 3.3759e-05 +- 1.345e-06
509.72 ; 3.3438e-05 +- 1.3386e-06
510.39 ; 3.183e-05 +- 1.306e-06
511.07 ; 3.183e-05 +- 1.306e-06
511.74 ; 2.9901e-05 +- 1.2658e-06
512.41 ; 2.958e-05 +- 1.259e-06
513.09 ; 2.9258e-05 +- 1.2521e-06
513.76 ; 3.0169e-05 +- 1.2715e-06
514.43 ; 2.6847e-05 +- 1.1994e-06
515.1 ; 2.6365e-05 +- 1.1886e-06
515.78 ; 2.4007e-05 +- 1.1342e-06
516.45 ; 2.6257e-05 +- 1.1862e-06
517.12 ; 2.5882e-05 +- 1.1777e-06
517.8 ; 2.4971e-05 +- 1.1568e-06
518.47 ; 2.5721e-05 +- 1.174e-06
519.14 ; 2.2881e-05 +- 1.1073e-06
519.82 ; 2.0684e-05 +- 1.0528e-06
520.49 ; 2.0684e-05 +- 1.0528e-06
521.16 ; 2.0256e-05 +- 1.0418e-06
521.83 ; 2.0577e-05 +- 1.0501e-06
522.51 ; 1.6719e-05 +- 9.4652e-07
523.18 ; 1.913e-05 +- 1.0125e-06
523.85 ; 1.6558e-05 +- 9.4196e-07
524.53 ; 1.8166e-05 +- 9.8663e-07
525.2 ; 1.8648e-05 +- 9.9964e-07
525.87 ; 1.6344e-05 +- 9.3585e-07
526.54 ; 1.763e-05 +- 9.7197e-07
527.22 ; 1.6612e-05 +- 9.4349e-07
527.89 ; 1.4361e-05 +- 8.7725e-07
528.56 ; 1.3825e-05 +- 8.6073e-07
529.24 ; 1.5165e-05 +- 9.0146e-07
529.91 ; 1.5004e-05 +- 8.9667e-07
530.58 ; 1.4254e-05 +- 8.7397e-07
531.25 ; 1.2968e-05 +- 8.3361e-07
531.93 ; 1.345e-05 +- 8.4897e-07
532.6 ; 1.2646e-05 +- 8.2321e-07
533.27 ; 1.27e-05 +- 8.2495e-07
533.95 ; 1.2646e-05 +- 8.2321e-07
534.62 ; 1.2057e-05 +- 8.038e-07
535.29 ; 1.0878e-05 +- 7.6349e-07
535.96 ; 1.0289e-05 +- 7.4251e-07
536.64 ; 1.0342e-05 +- 7.4445e-07
537.31 ; 1.0128e-05 +- 7.3669e-07
537.98 ; 9.4312e-06 +- 7.109e-07
538.66 ; 1.0878e-05 +- 7.6349e-07
539.33 ; 9.8599e-06 +- 7.2688e-07
540 ; 9.0025e-06 +- 6.9456e-07
540.68 ; 9.2704e-06 +- 7.0482e-07
541.35 ; 9.1097e-06 +- 6.9868e-07
542.02 ; 8.6274e-06 +- 6.7994e-07
542.69 ; 7.8236e-06 +- 6.4749e-07
543.37 ; 8.3595e-06 +- 6.6929e-07
544.04 ; 8.1451e-06 +- 6.6066e-07
544.71 ; 8.3059e-06 +- 6.6715e-07
545.39 ; 7.6093e-06 +- 6.3856e-07
546.06 ; 6.8055e-06 +- 6.0389e-07
546.73 ; 7.6093e-06 +- 6.3856e-07
547.4 ; 7.2878e-06 +- 6.2492e-07
548.08 ; 4.7692e-06 +- 5.0553e-07
548.75 ; 5.9481e-06 +- 5.6457e-07
549.42 ; 5.2515e-06 +- 5.3048e-07
550.1 ; 6.1624e-06 +- 5.7465e-07
550.77 ; 5.9481e-06 +- 5.6457e-07
551.44 ; 4.9299e-06 +- 5.1398e-07
552.11 ; 4.9835e-06 +- 5.1677e-07
552.79 ; 4.5548e-06 +- 4.9404e-07
553.46 ; 5.3051e-06 +- 5.3318e-07
554.13 ; 4.7692e-06 +- 5.0553e-07
554.81 ; 4.2869e-06 +- 4.7929e-07
555.48 ; 5.0371e-06 +- 5.1954e-07
556.15 ; 5.0907e-06 +- 5.223e-07
556.82 ; 4.1262e-06 +- 4.7022e-07
557.5 ; 4.5548e-06 +- 4.9404e-07
558.17 ; 3.4295e-06 +- 4.2869e-07
558.84 ; 3.6975e-06 +- 4.4512e-07
559.52 ; 3.2152e-06 +- 4.1508e-07
560.19 ; 3.8046e-06 +- 4.5153e-07
560.86 ; 2.8937e-06 +- 3.9378e-07
561.54 ; 3.751e-06 +- 4.4834e-07
562.21 ; 3.8582e-06 +- 4.547e-07
562.88 ; 2.7865e-06 +- 3.8642e-07
563.55 ; 2.6793e-06 +- 3.7891e-07
564.23 ; 3.9118e-06 +- 4.5784e-07
564.9 ; 3.108e-06 +- 4.081e-07
565.57 ; 3.0008e-06 +- 4.01e-07
566.25 ; 2.9473e-06 +- 3.9741e-07
566.92 ; 3.3759e-06 +- 4.2533e-07
567.59 ; 2.465e-06 +- 3.6344e-07
568.26 ; 2.2506e-06 +- 3.4728e-07
568.94 ; 2.5721e-06 +- 3.7126e-07
569.61 ; 3.2152e-06 +- 4.1508e-07
570.28 ; 2.2506e-06 +- 3.4728e-07
570.96 ; 2.4114e-06 +- 3.5947e-07
571.63 ; 1.8755e-06 +- 3.1702e-07
572.3 ; 2.9473e-06 +- 3.9741e-07
572.97 ; 2.0899e-06 +- 3.3465e-07
573.65 ; 2.3042e-06 +- 3.5139e-07
574.32 ; 1.6612e-06 +- 2.9836e-07
574.99 ; 2.6793e-06 +- 3.7891e-07
575.67 ; 2.3042e-06 +- 3.5139e-07
576.34 ; 1.6612e-06 +- 2.9836e-07
577.01 ; 2.2506e-06 +- 3.4728e-07
577.68 ; 1.6612e-06 +- 2.9836e-07
578.36 ; 1.5004e-06 +- 2.8355e-07
579.03 ; 1.8219e-06 +- 3.1246e-07
579.7 ; 1.554e-06 +- 2.8857e-07
580.38 ; 1.8219e-06 +- 3.1246e-07
581.05 ; 1.5004e-06 +- 2.8355e-07
581.72 ; 1.2325e-06 +- 2.5699e-07
582.39 ; 1.554e-06 +- 2.8857e-07
583.07 ; 1.8219e-06 +- 3.1246e-07
583.74 ; 1.7684e-06 +- 3.0783e-07
584.41 ; 1.3932e-06 +- 2.7324e-07
585.09 ; 1.1789e-06 +- 2.5134e-07
585.76 ; 1.1253e-06 +- 2.4556e-07
586.43 ; 1.6612e-06 +- 2.9836e-07
587.11 ; 1.6612e-06 +- 2.9836e-07
587.78 ; 1.2325e-06 +- 2.5699e-07
588.45 ; 9.1097e-07 +- 2.2094e-07
589.12 ; 1.1253e-06 +- 2.4556e-07
589.8 ; 1.2325e-06 +- 2.5699e-07
590.47 ; 9.1097e-07 +- 2.2094e-07
591.14 ; 5.8945e-07 +- 1.7773e-07
591.82 ; 8.038e-07 +- 2.0754e-07
592.49 ; 8.038e-07 +- 2.0754e-07
593.16 ; 8.038e-07 +- 2.0754e-07
593.83 ; 1.3397e-06 +- 2.6793e-07
594.51 ; 7.5021e-07 +- 2.005e-07
595.18 ; 5.3586e-07 +- 1.6946e-07
595.85 ; 1.3932e-06 +- 2.7324e-07
596.53 ; 1.0181e-06 +- 2.3358e-07
597.2 ; 9.1097e-07 +- 2.2094e-07
597.87 ; 1.1253e-06 +- 2.4556e-07
598.54 ; 1.0181e-06 +- 2.3358e-07
599.22 ; 5.3586e-07 +- 1.6946e-07
599.89 ; 5.3586e-07 +- 1.6946e-07
600.56 ; 8.038e-07 +- 2.0754e-07
601.24 ; 7.5021e-07 +- 2.005e-07
601.91 ; 6.9662e-07 +- 1.9321e-07
602.58 ; 6.4304e-07 +- 1.8563e-07
603.25 ; 8.5738e-07 +- 2.1435e-07
603.93 ; 6.9662e-07 +- 1.9321e-07
604.6 ; 1.3397e-06 +- 2.6793e-07
605.27 ; 3.751e-07 +- 1.4178e-07
605.95 ; 5.8945e-07 +- 1.7773e-07
606.62 ; 5.8945e-07 +- 1.7773e-07
607.29 ; 6.9662e-07 +- 1.9321e-07
607.97 ; 6.9662e-07 +- 1.9321e-07
608.64 ; 8.038e-07 +- 2.0754e-07
609.31 ; 3.2152e-07 +- 1.3126e-07
609.98 ; 1.6076e-07 +- 9.2814e-08
610.66 ; 6.4304e-07 +- 1.8563e-07
611.33 ; 5.3586e-07 +- 1.6946e-07
612 ; 3.2152e-07 +- 1.3126e-07
612.68 ; 5.8945e-07 +- 1.7773e-07
613.35 ; 7.5021e-07 +- 2.005e-07
614.02 ; 7.5021e-07 +- 2.005e-07
614.69 ; 3.751e-07 +- 1.4178e-07
615.37 ; 5.8945e-07 +- 1.7773e-07
616.04 ; 4.8228e-07 +- 1.6076e-07
616.71 ; 5.3586e-07 +- 1.6946e-07
617.39 ; 4.2869e-07 +- 1.5157e-07
618.06 ; 3.751e-07 +- 1.4178e-07
618.73 ; 4.2869e-07 +- 1.5157e-07
619.4 ; 5.8945e-07 +- 1.7773e-07
620.08 ; 4.2869e-07 +- 1.5157e-07
620.75 ; 4.8228e-07 +- 1.6076e-07
621.42 ; 6.9662e-07 +- 1.9321e-07
622.1 ; 5.8945e-07 +- 1.7773e-07
622.77 ; 6.9662e-07 +- 1.9321e-07
623.44 ; 5.3586e-07 +- 1.6946e-07
624.11 ; 5.8945e-07 +- 1.7773e-07
624.79 ; 4.2869e-07 +- 1.5157e-07
625.46 ; 3.751e-07 +- 1.4178e-07
626.13 ; 4.8228e-07 +- 1.6076e-07
626.81 ; 6.4304e-07 +- 1.8563e-07
627.48 ; 4.2869e-07 +- 1.5157e-07
628.15 ; 4.8228e-07 +- 1.6076e-07
628.83 ; 3.2152e-07 +- 1.3126e-07
629.5 ; 1.6076e-07 +- 9.2814e-08
630.17 ; 3.2152e-07 +- 1.3126e-07
630.84 ; 3.751e-07 +- 1.4178e-07
631.52 ; 3.2152e-07 +- 1.3126e-07
632.19 ; 3.2152e-07 +- 1.3126e-07
632.86 ; 1.6076e-07 +- 9.2814e-08
633.54 ; 4.8228e-07 +- 1.6076e-07
634.21 ; 4.8228e-07 +- 1.6076e-07
634.88 ; 4.2869e-07 +- 1.5157e-07
635.55 ; 3.2152e-07 +- 1.3126e-07
636.23 ; 3.2152e-07 +- 1.3126e-07
636.9 ; 2.6793e-07 +- 1.1982e-07
637.57 ; 8.038e-07 +- 2.0754e-07
638.25 ; 2.6793e-07 +- 1.1982e-07
638.92 ; 3.2152e-07 +- 1.3126e-07
639.59 ; 2.1435e-07 +- 1.0717e-07
640.26 ; 2.6793e-07 +- 1.1982e-07
640.94 ; 4.2869e-07 +- 1.5157e-07
641.61 ; 4.2869e-07 +- 1.5157e-07
642.28 ; 2.6793e-07 +- 1.1982e-07
642.96 ; 1.6076e-07 +- 9.2814e-08
643.63 ; 2.6793e-07 +- 1.1982e-07
644.3 ; 1.0717e-07 +- 7.5783e-08
644.97 ; 3.2152e-07 +- 1.3126e-07
645.65 ; 3.751e-07 +- 1.4178e-07
646.32 ; 5.8945e-07 +- 1.7773e-07
646.99 ; 1.0717e-07 +- 7.5783e-08
647.67 ; 5.3586e-07 +- 1.6946e-07
648.34 ; 2.1435e-07 +- 1.0717e-07
649.01 ; 2.1435e-07 +- 1.0717e-07
649.68 ; 3.751e-07 +- 1.4178e-07
650.36 ; 2.1435e-07 +- 1.0717e-07
651.03 ; 5.3586e-08 +- 5.3586e-08
651.7 ; 2.1435e-07 +- 1.0717e-07
652.38 ; 4.8228e-07 +- 1.6076e-07
653.05 ; 2.6793e-07 +- 1.1982e-07
653.72 ; 2.1435e-07 +- 1.0717e-07
654.4 ; 5.3586e-08 +- 5.3586e-08
655.07 ; 1.6076e-07 +- 9.2814e-08
655.74 ; 2.1435e-07 +- 1.0717e-07
656.41 ; 1.0717e-07 +- 7.5783e-08
657.09 ; 3.2152e-07 +- 1.3126e-07
657.76 ; 2.1435e-07 +- 1.0717e-07
658.43 ; 1.0717e-07 +- 7.5783e-08
659.11 ; 1.6076e-07 +- 9.2814e-08
659.78 ; 2.1435e-07 +- 1.0717e-07
660.45 ; 2.1435e-07 +- 1.0717e-07
661.12 ; 1.6076e-07 +- 9.2814e-08
661.8 ; 5.3586e-08 +- 5.3586e-08
662.47 ; 3.751e-07 +- 1.4178e-07
663.14 ; 3.2152e-07 +- 1.3126e-07
663.82 ; 3.751e-07 +- 1.4178e-07
664.49 ; 4.2869e-07 +- 1.5157e-07
665.16 ; 5.3586e-08 +- 5.3586e-08
665.83 ; 2.6793e-07 +- 1.1982e-07
666.51 ; 4.2869e-07 +- 1.5157e-07
667.18 ; 1.6076e-07 +- 9.2814e-08
667.85 ; 2.6793e-07 +- 1.1982e-07
668.53 ; 2.1435e-07 +- 1.0717e-07
669.2 ; 2.1435e-07 +- 1.0717e-07
669.87 ; 4.2869e-07 +- 1.5157e-07
670.54 ; 3.2152e-07 +- 1.3126e-07
671.22 ; 3.751e-07 +- 1.4178e-07
671.89 ; 2.1435e-07 +- 1.0717e-07
672.56 ; 2.1435e-07 +- 1.0717e-07
673.24 ; 3.751e-07 +- 1.4178e-07
673.91 ; 3.2152e-07 +- 1.3126e-07
674.58 ; 1.0717e-07 +- 7.5783e-08
675.26 ; 2.1435e-07 +- 1.0717e-07
675.93 ; 1.6076e-07 +- 9.2814e-08
676.6 ; 1.6076e-07 +- 9.2814e-08
677.27 ; 2.6793e-07 +- 1.1982e-07
677.95 ; 2.6793e-07 +- 1.1982e-07
678.62 ; 2.1435e-07 +- 1.0717e-07
679.29 ; 1.6076e-07 +- 9.2814e-08
679.97 ; 3.751e-07 +- 1.4178e-07
680.64 ; 2.6793e-07 +- 1.1982e-07
681.31 ; 1.6076e-07 +- 9.2814e-08
681.98 ; 2.6793e-07 +- 1.1982e-07
682.66 ; 3.2152e-07 +- 1.3126e-07
683.33 ; 1.0717e-07 +- 7.5783e-08
684 ; 3.751e-07 +- 1.4178e-07
684.68 ; 1.6076e-07 +- 9.2814e-08
685.35 ; 1.6076e-07 +- 9.2814e-08
686.02 ; 1.6076e-07 +- 9.2814e-08
686.69 ; 3.751e-07 +- 1.4178e-07
687.37 ; 1.0717e-07 +- 7.5783e-08
688.04 ; 1.0717e-07 +- 7.5783e-08
688.71 ; 1.6076e-07 +- 9.2814e-08
689.39 ; 2.1435e-07 +- 1.0717e-07
690.06 ; 1.6076e-07 +- 9.2814e-08
690.73 ; 1.6076e-07 +- 9.2814e-08
691.4 ; 5.3586e-08 +- 5.3586e-08
692.08 ; 3.2152e-07 +- 1.3126e-07
692.75 ; 5.3586e-08 +- 5.3586e-08
693.42 ; 3.2152e-07 +- 1.3126e-07
694.1 ; 5.3586e-08 +- 5.3586e-08
694.77 ; 2.6793e-07 +- 1.1982e-07
695.44 ; 5.3586e-08 +- 5.3586e-08
696.12 ; 1.0717e-07 +- 7.5783e-08
696.79 ; 1.6076e-07 +- 9.2814e-08
697.46 ; 5.3586e-08 +- 5.3586e-08
698.13 ; 1.6076e-07 +- 9.2814e-08
698.81 ; 5.3586e-08 +- 5.3586e-08
699.48 ; 0 +- 0
700.15 ; 3.2152e-07 +- 1.3126e-07
700.83 ; 1.0717e-07 +- 7.5783e-08
701.5 ; 1.0717e-07 +- 7.5783e-08
702.17 ; 2.1435e-07 +- 1.0717e-07
702.84 ; 1.0717e-07 +- 7.5783e-08
703.52 ; 1.0717e-07 +- 7.5783e-08
704.19 ; 5.3586e-08 +- 5.3586e-08
704.86 ; 2.1435e-07 +- 1.0717e-07
705.54 ; 1.0717e-07 +- 7.5783e-08
706.21 ; 1.0717e-07 +- 7.5783e-08
706.88 ; 2.6793e-07 +- 1.1982e-07
707.55 ; 1.6076e-07 +- 9.2814e-08
708.23 ; 1.6076e-07 +- 9.2814e-08
708.9 ; 0 +- 0
709.57 ; 1.6076e-07 +- 9.2814e-08
710.25 ; 1.0717e-07 +- 7.5783e-08
710.92 ; 0 +- 0
711.59 ; 1.0717e-07 +- 7.5783e-08
712.26 ; 1.6076e-07 +- 9.2814e-08
712.94 ; 0 +- 0
713.61 ; 1.0717e-07 +- 7.5783e-08
714.28 ; 1.6076e-07 +- 9.2814e-08
714.96 ; 2.6793e-07 +- 1.1982e-07
715.63 ; 1.0717e-07 +- 7.5783e-08
716.3 ; 2.1435e-07 +- 1.0717e-07
716.97 ; 1.0717e-07 +- 7.5783e-08
717.65 ; 2.1435e-07 +- 1.0717e-07
718.32 ; 1.6076e-07 +- 9.2814e-08
718.99 ; 1.0717e-07 +- 7.5783e-08
719.67 ; 5.3586e-08 +- 5.3586e-08
720.34 ; 1.0717e-07 +- 7.5783e-08
721.01 ; 1.0717e-07 +- 7.5783e-08
721.69 ; 5.3586e-08 +- 5.3586e-08
722.36 ; 1.0717e-07 +- 7.5783e-08
723.03 ; 2.6793e-07 +- 1.1982e-07
723.7 ; 1.6076e-07 +- 9.2814e-08
724.38 ; 5.3586e-08 +- 5.3586e-08
725.05 ; 1.6076e-07 +- 9.2814e-08
725.72 ; 1.0717e-07 +- 7.5783e-08
726.4 ; 1.0717e-07 +- 7.5783e-08
727.07 ; 0 +- 0
727.74 ; 1.0717e-07 +- 7.5783e-08
728.41 ; 5.3586e-08 +- 5.3586e-08
729.09 ; 5.3586e-08 +- 5.3586e-08
729.76 ; 5.3586e-08 +- 5.3586e-08
730.43 ; 2.6793e-07 +- 1.1982e-07
731.11 ; 5.3586e-08 +- 5.3586e-08
731.78 ; 1.6076e-07 +- 9.2814e-08
732.45 ; 5.3586e-08 +- 5.3586e-08
733.12 ; 1.0717e-07 +- 7.5783e-08
733.8 ; 5.3586e-08 +- 5.3586e-08
734.47 ; 5.3586e-08 +- 5.3586e-08
735.14 ; 5.3586e-08 +- 5.3586e-08
735.82 ; 1.0717e-07 +- 7.5783e-08
736.49 ; 1.0717e-07 +- 7.5783e-08
737.16 ; 5.3586e-08 +- 5.3586e-08
737.83 ; 1.0717e-07 +- 7.5783e-08
738.51 ; 0 +- 0
739.18 ; 2.1435e-07 +- 1.0717e-07
739.85 ; 1.6076e-07 +- 9.2814e-08
740.53 ; 1.0717e-07 +- 7.5783e-08
741.2 ; 5.3586e-08 +- 5.3586e-08
741.87 ; 1.0717e-07 +- 7.5783e-08
742.55 ; 5.3586e-08 +- 5.3586e-08
743.22 ; 0 +- 0
743.89 ; 1.0717e-07 +- 7.5783e-08
744.56 ; 5.3586e-08 +- 5.3586e-08
745.24 ; 5.3586e-08 +- 5.3586e-08
745.91 ; 1.6076e-07 +- 9.2814e-08
746.58 ; 5.3586e-08 +- 5.3586e-08
747.26 ; 0 +- 0
747.93 ; 5.3586e-08 +- 5.3586e-08
748.6 ; 0 +- 0
749.27 ; 5.3586e-08 +- 5.3586e-08
749.95 ; 5.3586e-08 +- 5.3586e-08
750.62 ; 1.0717e-07 +- 7.5783e-08
751.29 ; 5.3586e-08 +- 5.3586e-08
751.97 ; 5.3586e-08 +- 5.3586e-08
752.64 ; 0 +- 0
753.31 ; 2.1435e-07 +- 1.0717e-07
753.98 ; 1.6076e-07 +- 9.2814e-08
754.66 ; 5.3586e-08 +- 5.3586e-08
755.33 ; 5.3586e-08 +- 5.3586e-08
756 ; 1.0717e-07 +- 7.5783e-08
756.68 ; 1.0717e-07 +- 7.5783e-08
757.35 ; 0 +- 0
758.02 ; 1.6076e-07 +- 9.2814e-08
758.69 ; 5.3586e-08 +- 5.3586e-08
759.37 ; 0 +- 0
760.04 ; 0 +- 0
760.71 ; 1.0717e-07 +- 7.5783e-08
761.39 ; 0 +- 0
762.06 ; 1.0717e-07 +- 7.5783e-08
762.73 ; 5.3586e-08 +- 5.3586e-08
763.41 ; 5.3586e-08 +- 5.3586e-08
764.08 ; 1.0717e-07 +- 7.5783e-08
764.75 ; 0 +- 0
765.42 ; 5.3586e-08 +- 5.3586e-08
766.1 ; 0 +- 0
766.77 ; 1.6076e-07 +- 9.2814e-08
767.44 ; 5.3586e-08 +- 5.3586e-08
768.12 ; 5.3586e-08 +- 5.3586e-08
768.79 ; 5.3586e-08 +- 5.3586e-08
769.46 ; 5.3586e-08 +- 5.3586e-08
770.13 ; 5.3586e-08 +- 5.3586e-08
770.81 ; 5.3586e-08 +- 5.3586e-08
771.48 ; 5.3586e-08 +- 5.3586e-08
772.15 ; 2.1435e-07 +- 1.0717e-07
772.83 ; 5.3586e-08 +- 5.3586e-08
773.5 ; 0 +- 0
774.17 ; 0 +- 0
774.84 ; 1.0717e-07 +- 7.5783e-08
775.52 ; 1.0717e-07 +- 7.5783e-08
776.19 ; 0 +- 0
776.86 ; 0 +- 0
777.54 ; 0 +- 0
778.21 ; 5.3586e-08 +- 5.3586e-08
778.88 ; 1.0717e-07 +- 7.5783e-08
779.55 ; 1.0717e-07 +- 7.5783e-08
780.23 ; 5.3586e-08 +- 5.3586e-08
780.9 ; 0 +- 0
781.57 ; 5.3586e-08 +- 5.3586e-08
782.25 ; 0 +- 0
782.92 ; 5.3586e-08 +- 5.3586e-08
783.59 ; 5.3586e-08 +- 5.3586e-08
784.26 ; 1.0717e-07 +- 7.5783e-08
784.94 ; 0 +- 0
785.61 ; 1.0717e-07 +- 7.5783e-08
786.28 ; 0 +- 0
786.96 ; 5.3586e-08 +- 5.3586e-08
787.63 ; 1.6076e-07 +- 9.2814e-08
788.3 ; 5.3586e-08 +- 5.3586e-08
788.98 ; 1.6076e-07 +- 9.2814e-08
789.65 ; 5.3586e-08 +- 5.3586e-08
790.32 ; 5.3586e-08 +- 5.3586e-08
790.99 ; 0 +- 0
791.67 ; 0 +- 0
792.34 ; 5.3586e-08 +- 5.3586e-08
793.01 ; 5.3586e-08 +- 5.3586e-08
793.69 ; 0 +- 0
794.36 ; 5.3586e-08 +- 5.3586e-08
795.03 ; 0 +- 0
795.7 ; 5.3586e-08 +- 5.3586e-08
796.38 ; 0 +- 0
797.05 ; 0 +- 0
797.72 ; 5.3586e-08 +- 5.3586e-08
798.4 ; 5.3586e-08 +- 5.3586e-08
799.07 ; 1.0717e-07 +- 7.5783e-08
799.74 ; 5.3586e-08 +- 5.3586e-08
800.41 ; 5.3586e-08 +- 5.3586e-08
801.09 ; 5.3586e-08 +- 5.3586e-08
801.76 ; 5.3586e-08 +- 5.3586e-08
802.43 ; 5.3586e-08 +- 5.3586e-08
803.11 ; 5.3586e-08 +- 5.3586e-08
803.78 ; 0 +- 0
804.45 ; 0 +- 0
805.12 ; 5.3586e-08 +- 5.3586e-08
805.8 ; 0 +- 0
806.47 ; 0 +- 0
807.14 ; 1.0717e-07 +- 7.5783e-08
807.82 ; 5.3586e-08 +- 5.3586e-08
808.49 ; 5.3586e-08 +- 5.3586e-08
809.16 ; 0 +- 0
809.84 ; 0 +- 0
810.51 ; 0 +- 0
811.18 ; 0 +- 0
811.85 ; 0 +- 0
812.53 ; 5.3586e-08 +- 5.3586e-08
813.2 ; 5.3586e-08 +- 5.3586e-08
813.87 ; 5.3586e-08 +- 5.3586e-08
814.55 ; 0 +- 0
815.22 ; 5.3586e-08 +- 5.3586e-08
815.89 ; 0 +- 0
816.56 ; 5.3586e-08 +- 5.3586e-08
817.24 ; 0 +- 0
817.91 ; 0 +- 0
818.58 ; 1.0717e-07 +- 7.5783e-08
819.26 ; 5.3586e-08 +- 5.3586e-08
819.93 ; 0 +- 0
820.6 ; 5.3586e-08 +- 5.3586e-08
821.27 ; 0 +- 0
821.95 ; 5.3586e-08 +- 5.3586e-08
822.62 ; 5.3586e-08 +- 5.3586e-08
823.29 ; 0 +- 0
823.97 ; 0 +- 0
824.64 ; 1.0717e-07 +- 7.5783e-08
825.31 ; 5.3586e-08 +- 5.3586e-08
825.98 ; 0 +- 0
826.66 ; 0 +- 0
827.33 ; 0 +- 0
828 ; 0 +- 0
828.68 ; 5.3586e-08 +- 5.3586e-08
829.35 ; 0 +- 0
830.02 ; 0 +- 0
830.7 ; 5.3586e-08 +- 5.3586e-08
831.37 ; 0 +- 0
832.04 ; 0 +- 0
832.71 ; 0 +- 0
833.39 ; 0 +- 0
834.06 ; 0 +- 0
834.73 ; 5.3586e-08 +- 5.3586e-08
835.41 ; 0 +- 0
836.08 ; 0 +- 0
836.75 ; 0 +- 0
837.42 ; 0 +- 0
838.1 ; 5.3586e-08 +- 5.3586e-08
838.77 ; 0 +- 0
839.44 ; 0 +- 0
840.12 ; 5.3586e-08 +- 5.3586e-08
*dataend:

*dataset:
*location: Figure 2 (0-5% central)
*dscomment: Et EMC distributions for sqrt{s_{NN}}=62.4 GeV Au+Au collisions shown in 5% wide centrality bins.
*yheader: DY/DE_T IN 1/GEV
*xheader: E_T EMC IN GEV
*data: x : y
159.14 ; 0 +- 0
159.81 ; 5.3586e-08 +- 5.3586e-08
160.49 ; 0 +- 0
161.16 ; 0 +- 0
161.83 ; 0 +- 0
162.51 ; 0 +- 0
163.18 ; 0 +- 0
163.85 ; 5.3586e-08 +- 5.3586e-08
164.52 ; 0 +- 0
165.2 ; 0 +- 0
165.87 ; 5.3586e-08 +- 5.3586e-08
166.54 ; 0 +- 0
167.22 ; 0 +- 0
167.89 ; 0 +- 0
168.56 ; 5.3586e-08 +- 5.3586e-08
169.23 ; 0 +- 0
169.91 ; 0 +- 0
170.58 ; 5.3586e-08 +- 5.3586e-08
171.25 ; 0 +- 0
171.93 ; 0 +- 0
172.6 ; 0 +- 0
173.27 ; 5.3586e-08 +- 5.3586e-08
173.94 ; 0 +- 0
174.62 ; 0 +- 0
175.29 ; 0 +- 0
175.96 ; 5.3586e-08 +- 5.3586e-08
176.64 ; 0 +- 0
177.31 ; 0 +- 0
177.98 ; 5.3586e-08 +- 5.3586e-08
178.65 ; 5.3586e-08 +- 5.3586e-08
179.33 ; 5.3586e-08 +- 5.3586e-08
180 ; 1.6076e-07 +- 9.2814e-08
180.67 ; 0 +- 0
181.35 ; 5.3586e-08 +- 5.3586e-08
182.02 ; 5.3586e-08 +- 5.3586e-08
182.69 ; 0 +- 0
183.37 ; 1.0717e-07 +- 7.5783e-08
184.04 ; 5.3586e-08 +- 5.3586e-08
184.71 ; 1.0717e-07 +- 7.5783e-08
185.38 ; 1.0717e-07 +- 7.5783e-08
186.06 ; 5.3586e-08 +- 5.3586e-08
186.73 ; 2.6793e-07 +- 1.1982e-07
187.4 ; 1.0717e-07 +- 7.5783e-08
188.08 ; 5.3586e-08 +- 5.3586e-08
188.75 ; 5.3586e-08 +- 5.3586e-08
189.42 ; 1.0717e-07 +- 7.5783e-08
190.09 ; 1.0717e-07 +- 7.5783e-08
190.77 ; 5.3586e-08 +- 5.3586e-08
191.44 ; 3.2152e-07 +- 1.3126e-07
192.11 ; 2.1435e-07 +- 1.0717e-07
192.79 ; 2.1435e-07 +- 1.0717e-07
193.46 ; 2.1435e-07 +- 1.0717e-07
194.13 ; 2.1435e-07 +- 1.0717e-07
194.8 ; 2.1435e-07 +- 1.0717e-07
195.48 ; 1.0717e-07 +- 7.5783e-08
196.15 ; 3.2152e-07 +- 1.3126e-07
196.82 ; 3.751e-07 +- 1.4178e-07
197.5 ; 2.6793e-07 +- 1.1982e-07
198.17 ; 3.751e-07 +- 1.4178e-07
198.84 ; 3.751e-07 +- 1.4178e-07
199.51 ; 3.2152e-07 +- 1.3126e-07
200.19 ; 3.751e-07 +- 1.4178e-07
200.86 ; 3.751e-07 +- 1.4178e-07
201.53 ; 3.2152e-07 +- 1.3126e-07
202.21 ; 3.2152e-07 +- 1.3126e-07
202.88 ; 4.2869e-07 +- 1.5157e-07
203.55 ; 4.8228e-07 +- 1.6076e-07
204.23 ; 4.2869e-07 +- 1.5157e-07
204.9 ; 4.2869e-07 +- 1.5157e-07
205.57 ; 7.5021e-07 +- 2.005e-07
206.24 ; 8.5738e-07 +- 2.1435e-07
206.92 ; 8.5738e-07 +- 2.1435e-07
207.59 ; 8.038e-07 +- 2.0754e-07
208.26 ; 4.8228e-07 +- 1.6076e-07
208.94 ; 9.1097e-07 +- 2.2094e-07
209.61 ; 1.1253e-06 +- 2.4556e-07
210.28 ; 8.5738e-07 +- 2.1435e-07
210.95 ; 9.6456e-07 +- 2.2735e-07
211.63 ; 1.0181e-06 +- 2.3358e-07
212.3 ; 8.038e-07 +- 2.0754e-07
212.97 ; 1.0181e-06 +- 2.3358e-07
213.65 ; 1.1253e-06 +- 2.4556e-07
214.32 ; 1.3397e-06 +- 2.6793e-07
214.99 ; 1.4468e-06 +- 2.7844e-07
215.66 ; 1.6612e-06 +- 2.9836e-07
216.34 ; 1.5004e-06 +- 2.8355e-07
217.01 ; 1.7684e-06 +- 3.0783e-07
217.68 ; 2.0363e-06 +- 3.3033e-07
218.36 ; 1.1253e-06 +- 2.4556e-07
219.03 ; 2.6257e-06 +- 3.751e-07
219.7 ; 2.0363e-06 +- 3.3033e-07
220.37 ; 1.5004e-06 +- 2.8355e-07
221.05 ; 2.197e-06 +- 3.4312e-07
221.72 ; 1.9291e-06 +- 3.2152e-07
222.39 ; 2.0363e-06 +- 3.3033e-07
223.07 ; 2.6793e-06 +- 3.7891e-07
223.74 ; 2.465e-06 +- 3.6344e-07
224.41 ; 3.3759e-06 +- 4.2533e-07
225.09 ; 2.3578e-06 +- 3.5545e-07
225.76 ; 2.7329e-06 +- 3.8268e-07
226.43 ; 3.0544e-06 +- 4.0457e-07
227.1 ; 2.7865e-06 +- 3.8642e-07
227.78 ; 3.3224e-06 +- 4.2194e-07
228.45 ; 3.108e-06 +- 4.081e-07
229.12 ; 2.9473e-06 +- 3.9741e-07
229.8 ; 3.8046e-06 +- 4.5153e-07
230.47 ; 4.2869e-06 +- 4.7929e-07
231.14 ; 4.019e-06 +- 4.6407e-07
231.81 ; 4.2869e-06 +- 4.7929e-07
232.49 ; 3.3224e-06 +- 4.2194e-07
233.16 ; 4.5013e-06 +- 4.9113e-07
233.83 ; 4.9299e-06 +- 5.1398e-07
234.51 ; 4.8228e-06 +- 5.0837e-07
235.18 ; 4.5548e-06 +- 4.9404e-07
235.85 ; 4.6084e-06 +- 4.9694e-07
236.52 ; 4.7692e-06 +- 5.0553e-07
237.2 ; 5.8945e-06 +- 5.6202e-07
237.87 ; 6.3232e-06 +- 5.821e-07
238.54 ; 6.216e-06 +- 5.7714e-07
239.22 ; 6.484e-06 +- 5.8945e-07
239.89 ; 6.7519e-06 +- 6.0151e-07
240.56 ; 6.4304e-06 +- 5.8701e-07
241.23 ; 7.6093e-06 +- 6.3856e-07
241.91 ; 7.6629e-06 +- 6.408e-07
242.58 ; 9.1633e-06 +- 7.0073e-07
243.25 ; 8.1451e-06 +- 6.6066e-07
243.93 ; 9.0025e-06 +- 6.9456e-07
244.6 ; 9.4848e-06 +- 7.1292e-07
245.27 ; 9.0561e-06 +- 6.9662e-07
245.94 ; 9.324e-06 +- 7.0685e-07
246.62 ; 9.3776e-06 +- 7.0888e-07
247.29 ; 1.0074e-05 +- 7.3474e-07
247.96 ; 9.8599e-06 +- 7.2688e-07
248.64 ; 1.1682e-05 +- 7.9119e-07
249.31 ; 1.2164e-05 +- 8.0736e-07
249.98 ; 1.2432e-05 +- 8.162e-07
250.66 ; 1.3236e-05 +- 8.4218e-07
251.33 ; 1.2914e-05 +- 8.3188e-07
252 ; 1.2754e-05 +- 8.2669e-07
252.67 ; 1.4093e-05 +- 8.6903e-07
253.35 ; 1.5111e-05 +- 8.9987e-07
254.02 ; 1.7094e-05 +- 9.5708e-07
254.69 ; 1.5165e-05 +- 9.0146e-07
255.37 ; 1.4951e-05 +- 8.9507e-07
256.04 ; 1.6558e-05 +- 9.4196e-07
256.71 ; 1.688e-05 +- 9.5106e-07
257.38 ; 1.8702e-05 +- 1.0011e-06
258.06 ; 1.7737e-05 +- 9.7492e-07
258.73 ; 1.8166e-05 +- 9.8663e-07
259.4 ; 2.0363e-05 +- 1.0446e-06
260.08 ; 2.047e-05 +- 1.0473e-06
260.75 ; 2.0095e-05 +- 1.0377e-06
261.42 ; 2.1542e-05 +- 1.0744e-06
262.09 ; 2.2989e-05 +- 1.1099e-06
262.77 ; 2.2935e-05 +- 1.1086e-06
263.44 ; 2.3149e-05 +- 1.1138e-06
264.11 ; 2.6365e-05 +- 1.1886e-06
264.79 ; 2.4596e-05 +- 1.1481e-06
265.46 ; 2.6525e-05 +- 1.1922e-06
266.13 ; 2.824e-05 +- 1.2302e-06
266.8 ; 2.7597e-05 +- 1.2161e-06
267.48 ; 2.7704e-05 +- 1.2184e-06
268.15 ; 2.9258e-05 +- 1.2521e-06
268.82 ; 3.0544e-05 +- 1.2794e-06
269.5 ; 3.0812e-05 +- 1.285e-06
270.17 ; 3.3116e-05 +- 1.3321e-06
270.84 ; 3.3599e-05 +- 1.3418e-06
271.52 ; 3.3599e-05 +- 1.3418e-06
272.19 ; 3.3331e-05 +- 1.3364e-06
272.86 ; 3.3974e-05 +- 1.3493e-06
273.53 ; 3.8743e-05 +- 1.4409e-06
274.21 ; 3.6492e-05 +- 1.3984e-06
274.88 ; 3.8689e-05 +- 1.4399e-06
275.55 ; 3.7993e-05 +- 1.4268e-06
276.23 ; 4.0404e-05 +- 1.4714e-06
276.9 ; 3.96e-05 +- 1.4567e-06
277.57 ; 4.1262e-05 +- 1.487e-06
278.24 ; 4.3994e-05 +- 1.5354e-06
278.92 ; 4.7424e-05 +- 1.5941e-06
279.59 ; 4.737e-05 +- 1.5932e-06
280.26 ; 4.6299e-05 +- 1.5751e-06
280.94 ; 4.737e-05 +- 1.5932e-06
281.61 ; 4.8121e-05 +- 1.6058e-06
282.28 ; 5.08e-05 +- 1.6499e-06
282.95 ; 5.0318e-05 +- 1.6421e-06
283.63 ; 5.3801e-05 +- 1.6979e-06
284.3 ; 5.3908e-05 +- 1.6996e-06
284.97 ; 5.8516e-05 +- 1.7708e-06
285.65 ; 5.8516e-05 +- 1.7708e-06
286.32 ; 5.9213e-05 +- 1.7813e-06
286.99 ; 5.857e-05 +- 1.7716e-06
287.66 ; 6.2642e-05 +- 1.8322e-06
288.34 ; 6.3446e-05 +- 1.8439e-06
289.01 ; 6.291e-05 +- 1.8361e-06
289.68 ; 6.4197e-05 +- 1.8547e-06
290.36 ; 6.8859e-05 +- 1.9209e-06
291.03 ; 6.9341e-05 +- 1.9276e-06
291.7 ; 6.7626e-05 +- 1.9036e-06
292.38 ; 7.0788e-05 +- 1.9476e-06
293.05 ; 7.5932e-05 +- 2.0172e-06
293.72 ; 7.0948e-05 +- 1.9498e-06
294.39 ; 7.5878e-05 +- 2.0164e-06
295.07 ; 7.6682e-05 +- 2.0271e-06
295.74 ; 7.8718e-05 +- 2.0538e-06
296.41 ; 8.3702e-05 +- 2.1178e-06
297.09 ; 8.1773e-05 +- 2.0933e-06
297.76 ; 8.4988e-05 +- 2.1341e-06
298.43 ; 8.4559e-05 +- 2.1287e-06
299.1 ; 8.9382e-05 +- 2.1885e-06
299.78 ; 8.9275e-05 +- 2.1872e-06
300.45 ; 9.2597e-05 +- 2.2275e-06
301.12 ; 9.4312e-05 +- 2.2481e-06
301.8 ; 9.3937e-05 +- 2.2436e-06
302.47 ; 9.608e-05 +- 2.2691e-06
303.14 ; 0.00010042 +- 2.3197e-06
303.81 ; 0.00010192 +- 2.337e-06
304.49 ; 0.00010573 +- 2.3802e-06
305.16 ; 0.00010385 +- 2.359e-06
305.83 ; 0.00010873 +- 2.4138e-06
306.51 ; 0.00011366 +- 2.4679e-06
307.18 ; 0.00010996 +- 2.4274e-06
307.85 ; 0.00011601 +- 2.4934e-06
308.52 ; 0.00011601 +- 2.4934e-06
309.2 ; 0.00011875 +- 2.5225e-06
309.87 ; 0.00011827 +- 2.5174e-06
310.54 ; 0.00012459 +- 2.5838e-06
311.22 ; 0.00012164 +- 2.5531e-06
311.89 ; 0.00012437 +- 2.5816e-06
312.56 ; 0.00012539 +- 2.5922e-06
313.23 ; 0.00012877 +- 2.6268e-06
313.91 ; 0.00013289 +- 2.6686e-06
314.58 ; 0.00013032 +- 2.6426e-06
315.25 ; 0.00013552 +- 2.6948e-06
315.93 ; 0.000136 +- 2.6996e-06
316.6 ; 0.00014297 +- 2.7679e-06
317.27 ; 0.00013857 +- 2.725e-06
317.95 ; 0.0001434 +- 2.772e-06
318.62 ; 0.0001524 +- 2.8577e-06
319.29 ; 0.00014731 +- 2.8096e-06
319.96 ; 0.00014951 +- 2.8305e-06
320.64 ; 0.00015561 +- 2.8877e-06
321.31 ; 0.00015712 +- 2.9016e-06
321.98 ; 0.00015336 +- 2.8667e-06
322.66 ; 0.00015958 +- 2.9243e-06
323.33 ; 0.00016381 +- 2.9628e-06
324 ; 0.00016178 +- 2.9443e-06
324.67 ; 0.00016767 +- 2.9975e-06
325.35 ; 0.00017073 +- 3.0247e-06
326.02 ; 0.00016848 +- 3.0047e-06
326.69 ; 0.0001756 +- 3.0676e-06
327.37 ; 0.00018385 +- 3.1388e-06
328.04 ; 0.00017314 +- 3.046e-06
328.71 ; 0.00018369 +- 3.1374e-06
329.38 ; 0.00018723 +- 3.1675e-06
330.06 ; 0.00018375 +- 3.1379e-06
330.73 ; 0.00018203 +- 3.1232e-06
331.4 ; 0.00018803 +- 3.1743e-06
332.08 ; 0.0001897 +- 3.1883e-06
332.75 ; 0.00019098 +- 3.1991e-06
333.42 ; 0.00020256 +- 3.2946e-06
334.09 ; 0.00019811 +- 3.2582e-06
334.77 ; 0.00019763 +- 3.2542e-06
335.44 ; 0.00020529 +- 3.3167e-06
336.11 ; 0.00020041 +- 3.2771e-06
336.79 ; 0.00020229 +- 3.2924e-06
337.46 ; 0.00020893 +- 3.346e-06
338.13 ; 0.00021279 +- 3.3768e-06
338.81 ; 0.00021311 +- 3.3793e-06
339.48 ; 0.00021601 +- 3.4022e-06
340.15 ; 0.00022463 +- 3.4695e-06
340.82 ; 0.00021938 +- 3.4287e-06
341.5 ; 0.00022153 +- 3.4454e-06
342.17 ; 0.00022571 +- 3.4778e-06
342.84 ; 0.00023085 +- 3.5172e-06
343.52 ; 0.00023021 +- 3.5123e-06
344.19 ; 0.00022946 +- 3.5065e-06
344.86 ; 0.00022806 +- 3.4959e-06
345.53 ; 0.00023557 +- 3.5529e-06
346.21 ; 0.00024478 +- 3.6217e-06
346.88 ; 0.00024264 +- 3.6059e-06
347.55 ; 0.00023808 +- 3.5718e-06
348.23 ; 0.00024762 +- 3.6427e-06
348.9 ; 0.00025566 +- 3.7013e-06
349.57 ; 0.000254 +- 3.6893e-06
350.24 ; 0.00024746 +- 3.6415e-06
350.92 ; 0.00024687 +- 3.6372e-06
351.59 ; 0.00025416 +- 3.6905e-06
352.26 ; 0.00025888 +- 3.7245e-06
352.94 ; 0.00025673 +- 3.7091e-06
353.61 ; 0.00025904 +- 3.7257e-06
354.28 ; 0.00025791 +- 3.7176e-06
354.95 ; 0.00026665 +- 3.78e-06
355.63 ; 0.00026831 +- 3.7918e-06
356.3 ; 0.0002689 +- 3.7959e-06
356.97 ; 0.00026434 +- 3.7637e-06
357.65 ; 0.00027452 +- 3.8355e-06
358.32 ; 0.00026418 +- 3.7625e-06
358.99 ; 0.00027704 +- 3.853e-06
359.67 ; 0.00027913 +- 3.8675e-06
360.34 ; 0.00027608 +- 3.8463e-06
361.01 ; 0.00028685 +- 3.9206e-06
361.68 ; 0.00027538 +- 3.8414e-06
362.36 ; 0.00028154 +- 3.8842e-06
363.03 ; 0.00028326 +- 3.896e-06
363.7 ; 0.00029489 +- 3.9752e-06
364.38 ; 0.00028905 +- 3.9356e-06
365.05 ; 0.0002869 +- 3.921e-06
365.72 ; 0.00029419 +- 3.9705e-06
366.39 ; 0.00029601 +- 3.9827e-06
367.07 ; 0.00029435 +- 3.9715e-06
367.74 ; 0.00029815 +- 3.9971e-06
368.41 ; 0.00029483 +- 3.9748e-06
369.09 ; 0.00029623 +- 3.9842e-06
369.76 ; 0.00029542 +- 3.9788e-06
370.43 ; 0.00029848 +- 3.9993e-06
371.1 ; 0.00029189 +- 3.9549e-06
371.78 ; 0.00029746 +- 3.9925e-06
372.45 ; 0.00030491 +- 4.0421e-06
373.12 ; 0.00030459 +- 4.04e-06
373.8 ; 0.00030678 +- 4.0545e-06
374.47 ; 0.0003086 +- 4.0666e-06
375.14 ; 0.00030839 +- 4.0652e-06
375.81 ; 0.00030984 +- 4.0747e-06
376.49 ; 0.0003123 +- 4.0909e-06
377.16 ; 0.00030866 +- 4.0669e-06
377.83 ; 0.00030791 +- 4.062e-06
378.51 ; 0.00031225 +- 4.0905e-06
379.18 ; 0.00031321 +- 4.0968e-06
379.85 ; 0.00031836 +- 4.1303e-06
380.52 ; 0.00031648 +- 4.1181e-06
381.2 ; 0.00030657 +- 4.0531e-06
381.87 ; 0.00031712 +- 4.1223e-06
382.54 ; 0.00031605 +- 4.1154e-06
383.22 ; 0.00030571 +- 4.0475e-06
383.89 ; 0.00031482 +- 4.1073e-06
384.56 ; 0.00031471 +- 4.1066e-06
385.24 ; 0.00031889 +- 4.1338e-06
385.91 ; 0.00031932 +- 4.1366e-06
386.58 ; 0.00031187 +- 4.088e-06
387.25 ; 0.00031664 +- 4.1192e-06
387.93 ; 0.00031846 +- 4.131e-06
388.6 ; 0.00031745 +- 4.1244e-06
389.27 ; 0.00032618 +- 4.1808e-06
389.95 ; 0.00031407 +- 4.1024e-06
390.62 ; 0.00031273 +- 4.0937e-06
391.29 ; 0.00031761 +- 4.1255e-06
391.96 ; 0.00031804 +- 4.1282e-06
392.64 ; 0.00032055 +- 4.1446e-06
393.31 ; 0.00031927 +- 4.1362e-06
393.98 ; 0.0003168 +- 4.1202e-06
394.66 ; 0.00031273 +- 4.0937e-06
395.33 ; 0.00031536 +- 4.1108e-06
396 ; 0.00032061 +- 4.1449e-06
396.67 ; 0.0003123 +- 4.0909e-06
397.35 ; 0.00031755 +- 4.1251e-06
398.02 ; 0.0003123 +- 4.0909e-06
398.69 ; 0.00031214 +- 4.0898e-06
399.37 ; 0.00030759 +- 4.0599e-06
400.04 ; 0.00030855 +- 4.0662e-06
400.71 ; 0.00031461 +- 4.1059e-06
401.38 ; 0.0003168 +- 4.1202e-06
402.06 ; 0.00030507 +- 4.0432e-06
402.73 ; 0.00030416 +- 4.0372e-06
403.4 ; 0.00030282 +- 4.0283e-06
404.08 ; 0.00030292 +- 4.029e-06
404.75 ; 0.00030619 +- 4.0506e-06
405.42 ; 0.00029832 +- 3.9982e-06
406.1 ; 0.00029933 +- 4.005e-06
406.77 ; 0.00030041 +- 4.0122e-06
407.44 ; 0.00029842 +- 3.9989e-06
408.11 ; 0.00029783 +- 3.995e-06
408.79 ; 0.00029119 +- 3.9502e-06
409.46 ; 0.00030244 +- 4.0258e-06
410.13 ; 0.00029885 +- 4.0018e-06
410.81 ; 0.0002959 +- 3.982e-06
411.48 ; 0.00029108 +- 3.9494e-06
412.15 ; 0.00029221 +- 3.9571e-06
412.82 ; 0.00028958 +- 3.9392e-06
413.5 ; 0.00028765 +- 3.9261e-06
414.17 ; 0.00028915 +- 3.9363e-06
414.84 ; 0.00028647 +- 3.918e-06
415.52 ; 0.00028186 +- 3.8864e-06
416.19 ; 0.00028969 +- 3.94e-06
416.86 ; 0.00028358 +- 3.8982e-06
417.53 ; 0.00028283 +- 3.893e-06
418.21 ; 0.00027565 +- 3.8433e-06
418.88 ; 0.00027275 +- 3.8231e-06
419.55 ; 0.00027827 +- 3.8616e-06
420.23 ; 0.00027506 +- 3.8392e-06
420.9 ; 0.00027661 +- 3.85e-06
421.57 ; 0.00026943 +- 3.7997e-06
422.24 ; 0.00026563 +- 3.7728e-06
422.92 ; 0.00027088 +- 3.8099e-06
423.59 ; 0.00026241 +- 3.7499e-06
424.26 ; 0.00026038 +- 3.7353e-06
424.94 ; 0.00025893 +- 3.7249e-06
425.61 ; 0.00026531 +- 3.7705e-06
426.28 ; 0.00026134 +- 3.7422e-06
426.96 ; 0.00025646 +- 3.7072e-06
427.63 ; 0.00025705 +- 3.7114e-06
428.3 ; 0.00025539 +- 3.6994e-06
428.97 ; 0.00025496 +- 3.6963e-06
429.65 ; 0.00024489 +- 3.6225e-06
430.32 ; 0.00024628 +- 3.6328e-06
430.99 ; 0.00024478 +- 3.6217e-06
431.67 ; 0.00024242 +- 3.6043e-06
432.34 ; 0.00024184 +- 3.5999e-06
433.01 ; 0.00023664 +- 3.561e-06
433.68 ; 0.0002293 +- 3.5053e-06
434.36 ; 0.0002323 +- 3.5282e-06
435.03 ; 0.00023026 +- 3.5127e-06
435.7 ; 0.00023053 +- 3.5147e-06
436.38 ; 0.00022254 +- 3.4533e-06
437.05 ; 0.00022083 +- 3.44e-06
437.72 ; 0.00021997 +- 3.4333e-06
438.39 ; 0.0002189 +- 3.4249e-06
439.07 ; 0.00021686 +- 3.409e-06
439.74 ; 0.00020475 +- 3.3124e-06
440.41 ; 0.00020872 +- 3.3443e-06
441.09 ; 0.00020352 +- 3.3024e-06
441.76 ; 0.00020792 +- 3.3379e-06
442.43 ; 0.00020288 +- 3.2972e-06
443.1 ; 0.00020368 +- 3.3037e-06
443.78 ; 0.00019655 +- 3.2454e-06
444.45 ; 0.00019243 +- 3.2112e-06
445.12 ; 0.00019918 +- 3.267e-06
445.8 ; 0.00019211 +- 3.2085e-06
446.47 ; 0.00018627 +- 3.1593e-06
447.14 ; 0.00018375 +- 3.1379e-06
447.81 ; 0.00019012 +- 3.1919e-06
448.49 ; 0.00018675 +- 3.1634e-06
449.16 ; 0.00017662 +- 3.0764e-06
449.83 ; 0.00017673 +- 3.0774e-06
450.51 ; 0.00017641 +- 3.0746e-06
451.18 ; 0.00017266 +- 3.0417e-06
451.85 ; 0.00016885 +- 3.008e-06
452.53 ; 0.00016681 +- 2.9898e-06
453.2 ; 0.00016799 +- 3.0004e-06
453.87 ; 0.00016944 +- 3.0133e-06
454.54 ; 0.00015915 +- 2.9203e-06
455.22 ; 0.00015915 +- 2.9203e-06
455.89 ; 0.00015722 +- 2.9026e-06
456.56 ; 0.00015449 +- 2.8772e-06
457.24 ; 0.00015138 +- 2.8482e-06
457.91 ; 0.00015626 +- 2.8937e-06
458.58 ; 0.00015015 +- 2.8365e-06
459.25 ; 0.00014661 +- 2.8029e-06
459.93 ; 0.00013906 +- 2.7298e-06
460.6 ; 0.00014409 +- 2.7788e-06
461.27 ; 0.00014056 +- 2.7444e-06
461.95 ; 0.00014297 +- 2.7679e-06
462.62 ; 0.00013021 +- 2.6415e-06
463.29 ; 0.0001337 +- 2.6766e-06
463.96 ; 0.0001323 +- 2.6627e-06
464.64 ; 0.00012764 +- 2.6153e-06
465.31 ; 0.00012813 +- 2.6203e-06
465.98 ; 0.00012609 +- 2.5994e-06
466.66 ; 0.00012352 +- 2.5727e-06
467.33 ; 0.00012566 +- 2.5949e-06
468 ; 0.00011714 +- 2.5054e-06
468.67 ; 0.00011671 +- 2.5008e-06
469.35 ; 0.000115 +- 2.4824e-06
470.02 ; 0.00010814 +- 2.4072e-06
470.69 ; 0.00010942 +- 2.4215e-06
471.37 ; 0.00010594 +- 2.3826e-06
472.04 ; 0.0001031 +- 2.3505e-06
472.71 ; 0.00010685 +- 2.3929e-06
473.39 ; 9.8867e-05 +- 2.3017e-06
474.06 ; 9.8599e-05 +- 2.2986e-06
474.73 ; 0.00010171 +- 2.3345e-06
475.4 ; 9.6456e-05 +- 2.2735e-06
476.08 ; 9.3723e-05 +- 2.241e-06
476.75 ; 9.3348e-05 +- 2.2366e-06
477.42 ; 9.3348e-05 +- 2.2366e-06
478.1 ; 9.2704e-05 +- 2.2288e-06
478.77 ; 8.9489e-05 +- 2.1898e-06
479.44 ; 8.6703e-05 +- 2.1555e-06
480.11 ; 8.3916e-05 +- 2.1206e-06
480.79 ; 8.2416e-05 +- 2.1015e-06
481.46 ; 8.2737e-05 +- 2.1056e-06
482.13 ; 7.9308e-05 +- 2.0615e-06
482.81 ; 7.8718e-05 +- 2.0538e-06
483.48 ; 7.8558e-05 +- 2.0517e-06
484.15 ; 7.5075e-05 +- 2.0057e-06
484.82 ; 7.261e-05 +- 1.9725e-06
485.5 ; 7.0252e-05 +- 1.9402e-06
486.17 ; 7.2074e-05 +- 1.9652e-06
486.84 ; 7.0573e-05 +- 1.9447e-06
487.52 ; 6.634e-05 +- 1.8854e-06
488.19 ; 6.9073e-05 +- 1.9239e-06
488.86 ; 6.6072e-05 +- 1.8816e-06
489.53 ; 6.484e-05 +- 1.864e-06
490.21 ; 6.35e-05 +- 1.8446e-06
490.88 ; 6.1196e-05 +- 1.8109e-06
491.55 ; 5.8784e-05 +- 1.7748e-06
492.23 ; 5.9481e-05 +- 1.7853e-06
492.9 ; 5.5998e-05 +- 1.7323e-06
493.57 ; 5.6426e-05 +- 1.7389e-06
494.25 ; 5.5355e-05 +- 1.7223e-06
494.92 ; 5.3104e-05 +- 1.6869e-06
495.59 ; 5.0318e-05 +- 1.6421e-06
496.26 ; 4.796e-05 +- 1.6031e-06
496.94 ; 5.0746e-05 +- 1.649e-06
497.61 ; 4.9085e-05 +- 1.6218e-06
498.28 ; 4.5227e-05 +- 1.5568e-06
498.96 ; 4.1851e-05 +- 1.4975e-06
499.63 ; 4.3673e-05 +- 1.5298e-06
500.3 ; 4.4852e-05 +- 1.5503e-06
500.97 ; 4.1851e-05 +- 1.4975e-06
501.65 ; 4.0136e-05 +- 1.4665e-06
502.32 ; 3.8582e-05 +- 1.4379e-06
502.99 ; 4.0083e-05 +- 1.4656e-06
503.67 ; 3.7939e-05 +- 1.4258e-06
504.34 ; 3.7671e-05 +- 1.4208e-06
505.01 ; 3.751e-05 +- 1.4178e-06
505.68 ; 3.5635e-05 +- 1.3819e-06
506.36 ; 3.4724e-05 +- 1.3641e-06
507.03 ; 3.3545e-05 +- 1.3407e-06
507.7 ; 3.451e-05 +- 1.3599e-06
508.38 ; 3.167e-05 +- 1.3027e-06
509.05 ; 3.1348e-05 +- 1.2961e-06
509.72 ; 3.033e-05 +- 1.2749e-06
510.39 ; 2.9419e-05 +- 1.2556e-06
511.07 ; 2.9526e-05 +- 1.2579e-06
511.74 ; 2.7597e-05 +- 1.2161e-06
512.41 ; 2.6954e-05 +- 1.2018e-06
513.09 ; 2.6097e-05 +- 1.1825e-06
513.76 ; 2.7543e-05 +- 1.2149e-06
514.43 ; 2.465e-05 +- 1.1493e-06
515.1 ; 2.4596e-05 +- 1.1481e-06
515.78 ; 2.2292e-05 +- 1.093e-06
516.45 ; 2.4007e-05 +- 1.1342e-06
517.12 ; 2.3203e-05 +- 1.1151e-06
517.8 ; 2.2721e-05 +- 1.1034e-06
518.47 ; 2.3685e-05 +- 1.1266e-06
519.14 ; 2.1113e-05 +- 1.0637e-06
519.82 ; 1.8648e-05 +- 9.9964e-07
520.49 ; 1.913e-05 +- 1.0125e-06
521.16 ; 1.8916e-05 +- 1.0068e-06
521.83 ; 1.8755e-05 +- 1.0025e-06
522.51 ; 1.5272e-05 +- 9.0464e-07
523.18 ; 1.7737e-05 +- 9.7492e-07
523.85 ; 1.5326e-05 +- 9.0623e-07
524.53 ; 1.6612e-05 +- 9.4349e-07
525.2 ; 1.688e-05 +- 9.5106e-07
525.87 ; 1.4897e-05 +- 8.9346e-07
526.54 ; 1.6183e-05 +- 9.3123e-07
527.22 ; 1.5594e-05 +- 9.1412e-07
527.89 ; 1.2754e-05 +- 8.2669e-07
528.56 ; 1.2539e-05 +- 8.1971e-07
529.24 ; 1.3772e-05 +- 8.5906e-07
529.91 ; 1.3611e-05 +- 8.5403e-07
530.58 ; 1.2968e-05 +- 8.3361e-07
531.25 ; 1.195e-05 +- 8.0022e-07
531.93 ; 1.2646e-05 +- 8.2321e-07
532.6 ; 1.1628e-05 +- 7.8938e-07
533.27 ; 1.1682e-05 +- 7.9119e-07
533.95 ; 1.1628e-05 +- 7.8938e-07
534.62 ; 1.0878e-05 +- 7.6349e-07
535.29 ; 1.0074e-05 +- 7.3474e-07
535.96 ; 9.5384e-06 +- 7.1493e-07
536.64 ; 9.1097e-06 +- 6.9868e-07
537.31 ; 9.2704e-06 +- 7.0482e-07
537.98 ; 8.4667e-06 +- 6.7357e-07
538.66 ; 9.7527e-06 +- 7.2292e-07
539.33 ; 9.1097e-06 +- 6.9868e-07
540 ; 8.0915e-06 +- 6.5848e-07
540.68 ; 8.5202e-06 +- 6.757e-07
541.35 ; 7.9844e-06 +- 6.5411e-07
542.02 ; 7.7164e-06 +- 6.4304e-07
542.69 ; 7.0734e-06 +- 6.1566e-07
543.37 ; 7.3413e-06 +- 6.2721e-07
544.04 ; 7.2878e-06 +- 6.2492e-07
544.71 ; 7.2878e-06 +- 6.2492e-07
545.39 ; 7.0734e-06 +- 6.1566e-07
546.06 ; 5.9481e-06 +- 5.6457e-07
546.73 ; 6.8055e-06 +- 6.0389e-07
547.4 ; 6.5375e-06 +- 5.9188e-07
548.08 ; 4.2333e-06 +- 4.7629e-07
548.75 ; 5.4122e-06 +- 5.3854e-07
549.42 ; 4.7692e-06 +- 5.0553e-07
550.1 ; 5.1979e-06 +- 5.2776e-07
550.77 ; 5.2515e-06 +- 5.3048e-07
551.44 ; 4.3405e-06 +- 4.8228e-07
552.11 ; 4.4477e-06 +- 4.882e-07
552.79 ; 4.1262e-06 +- 4.7022e-07
553.46 ; 4.7156e-06 +- 5.0268e-07
554.13 ; 4.3405e-06 +- 4.8228e-07
554.81 ; 3.6975e-06 +- 4.4512e-07
555.48 ; 4.6084e-06 +- 4.9694e-07
556.15 ; 4.3941e-06 +- 4.8525e-07
556.82 ; 3.5367e-06 +- 4.3534e-07
557.5 ; 3.8046e-06 +- 4.5153e-07
558.17 ; 3.1616e-06 +- 4.116e-07
558.84 ; 3.3224e-06 +- 4.2194e-07
559.52 ; 2.8937e-06 +- 3.9378e-07
560.19 ; 3.3224e-06 +- 4.2194e-07
560.86 ; 2.6257e-06 +- 3.751e-07
561.54 ; 3.3759e-06 +- 4.2533e-07
562.21 ; 3.2152e-06 +- 4.1508e-07
562.88 ; 2.4114e-06 +- 3.5947e-07
563.55 ; 2.2506e-06 +- 3.4728e-07
564.23 ; 3.6439e-06 +- 4.4188e-07
564.9 ; 2.5721e-06 +- 3.7126e-07
565.57 ; 2.6257e-06 +- 3.751e-07
566.25 ; 2.3578e-06 +- 3.5545e-07
566.92 ; 3.0008e-06 +- 4.01e-07
567.59 ; 2.2506e-06 +- 3.4728e-07
568.26 ; 1.9291e-06 +- 3.2152e-07
568.94 ; 2.2506e-06 +- 3.4728e-07
569.61 ; 3.0008e-06 +- 4.01e-07
570.28 ; 1.9291e-06 +- 3.2152e-07
570.96 ; 1.8219e-06 +- 3.1246e-07
571.63 ; 1.7148e-06 +- 3.0313e-07
572.3 ; 2.7865e-06 +- 3.8642e-07
572.97 ; 1.7148e-06 +- 3.0313e-07
573.65 ; 1.9827e-06 +- 3.2595e-07
574.32 ; 1.2861e-06 +- 2.6252e-07
574.99 ; 2.465e-06 +- 3.6344e-07
575.67 ; 1.9291e-06 +- 3.2152e-07
576.34 ; 1.2861e-06 +- 2.6252e-07
577.01 ; 1.9827e-06 +- 3.2595e-07
577.68 ; 1.4468e-06 +- 2.7844e-07
578.36 ; 1.1253e-06 +- 2.4556e-07
579.03 ; 1.4468e-06 +- 2.7844e-07
579.7 ; 1.3397e-06 +- 2.6793e-07
580.38 ; 1.554e-06 +- 2.8857e-07
581.05 ; 1.2861e-06 +- 2.6252e-07
581.72 ; 9.6456e-07 +- 2.2735e-07
582.39 ; 1.3932e-06 +- 2.7324e-07
583.07 ; 1.4468e-06 +- 2.7844e-07
583.74 ; 1.3397e-06 +- 2.6793e-07
584.41 ; 1.1253e-06 +- 2.4556e-07
585.09 ; 8.038e-07 +- 2.0754e-07
585.76 ; 6.9662e-07 +- 1.9321e-07
586.43 ; 1.2861e-06 +- 2.6252e-07
587.11 ; 1.1253e-06 +- 2.4556e-07
587.78 ; 1.1253e-06 +- 2.4556e-07
588.45 ; 5.8945e-07 +- 1.7773e-07
589.12 ; 6.4304e-07 +- 1.8563e-07
589.8 ; 1.1253e-06 +- 2.4556e-07
590.47 ; 5.8945e-07 +- 1.7773e-07
591.14 ; 5.3586e-07 +- 1.6946e-07
591.82 ; 6.9662e-07 +- 1.9321e-07
592.49 ; 8.038e-07 +- 2.0754e-07
593.16 ; 6.4304e-07 +- 1.8563e-07
593.83 ; 1.1789e-06 +- 2.5134e-07
594.51 ; 6.4304e-07 +- 1.8563e-07
595.18 ; 4.8228e-07 +- 1.6076e-07
595.85 ; 1.1253e-06 +- 2.4556e-07
596.53 ; 7.5021e-07 +- 2.005e-07
597.2 ; 5.8945e-07 +- 1.7773e-07
597.87 ; 8.038e-07 +- 2.0754e-07
598.54 ; 7.5021e-07 +- 2.005e-07
599.22 ; 3.2152e-07 +- 1.3126e-07
599.89 ; 4.8228e-07 +- 1.6076e-07
600.56 ; 3.2152e-07 +- 1.3126e-07
601.24 ; 5.3586e-07 +- 1.6946e-07
601.91 ; 5.3586e-07 +- 1.6946e-07
602.58 ; 4.8228e-07 +- 1.6076e-07
603.25 ; 7.5021e-07 +- 2.005e-07
603.93 ; 5.8945e-07 +- 1.7773e-07
604.6 ; 1.0181e-06 +- 2.3358e-07
605.27 ; 2.6793e-07 +- 1.1982e-07
605.95 ; 5.3586e-07 +- 1.6946e-07
606.62 ; 4.8228e-07 +- 1.6076e-07
607.29 ; 5.3586e-07 +- 1.6946e-07
607.97 ; 4.8228e-07 +- 1.6076e-07
608.64 ; 4.8228e-07 +- 1.6076e-07
609.31 ; 2.1435e-07 +- 1.0717e-07
609.98 ; 1.0717e-07 +- 7.5783e-08
610.66 ; 5.3586e-07 +- 1.6946e-07
611.33 ; 4.8228e-07 +- 1.6076e-07
612 ; 2.1435e-07 +- 1.0717e-07
612.68 ; 4.8228e-07 +- 1.6076e-07
613.35 ; 4.8228e-07 +- 1.6076e-07
614.02 ; 4.2869e-07 +- 1.5157e-07
614.69 ; 3.2152e-07 +- 1.3126e-07
615.37 ; 3.2152e-07 +- 1.3126e-07
616.04 ; 3.2152e-07 +- 1.3126e-07
616.71 ; 3.751e-07 +- 1.4178e-07
617.39 ; 4.2869e-07 +- 1.5157e-07
618.06 ; 2.6793e-07 +- 1.1982e-07
618.73 ; 3.751e-07 +- 1.4178e-07
619.4 ; 4.2869e-07 +- 1.5157e-07
620.08 ; 3.2152e-07 +- 1.3126e-07
620.75 ; 3.2152e-07 +- 1.3126e-07
621.42 ; 4.8228e-07 +- 1.6076e-07
622.1 ; 5.3586e-07 +- 1.6946e-07
622.77 ; 3.751e-07 +- 1.4178e-07
623.44 ; 3.751e-07 +- 1.4178e-07
624.11 ; 4.8228e-07 +- 1.6076e-07
624.79 ; 3.2152e-07 +- 1.3126e-07
625.46 ; 2.6793e-07 +- 1.1982e-07
626.13 ; 3.751e-07 +- 1.4178e-07
626.81 ; 4.2869e-07 +- 1.5157e-07
627.48 ; 3.2152e-07 +- 1.3126e-07
628.15 ; 3.751e-07 +- 1.4178e-07
628.83 ; 5.3586e-08 +- 5.3586e-08
629.5 ; 1.6076e-07 +- 9.2814e-08
630.17 ; 2.1435e-07 +- 1.0717e-07
630.84 ; 2.6793e-07 +- 1.1982e-07
631.52 ; 2.1435e-07 +- 1.0717e-07
632.19 ; 1.6076e-07 +- 9.2814e-08
632.86 ; 1.0717e-07 +- 7.5783e-08
633.54 ; 3.2152e-07 +- 1.3126e-07
634.21 ; 1.6076e-07 +- 9.2814e-08
634.88 ; 3.2152e-07 +- 1.3126e-07
635.55 ; 2.6793e-07 +- 1.1982e-07
636.23 ; 1.6076e-07 +- 9.2814e-08
636.9 ; 1.6076e-07 +- 9.2814e-08
637.57 ; 5.3586e-07 +- 1.6946e-07
638.25 ; 1.6076e-07 +- 9.2814e-08
638.92 ; 2.1435e-07 +- 1.0717e-07
639.59 ; 2.1435e-07 +- 1.0717e-07
640.26 ; 1.0717e-07 +- 7.5783e-08
640.94 ; 2.6793e-07 +- 1.1982e-07
641.61 ; 2.6793e-07 +- 1.1982e-07
642.28 ; 1.6076e-07 +- 9.2814e-08
642.96 ; 1.6076e-07 +- 9.2814e-08
643.63 ; 1.6076e-07 +- 9.2814e-08
644.3 ; 0 +- 0
644.97 ; 2.6793e-07 +- 1.1982e-07
645.65 ; 3.751e-07 +- 1.4178e-07
646.32 ; 4.2869e-07 +- 1.5157e-07
646.99 ; 1.0717e-07 +- 7.5783e-08
647.67 ; 3.2152e-07 +- 1.3126e-07
648.34 ; 2.1435e-07 +- 1.0717e-07
649.01 ; 1.0717e-07 +- 7.5783e-08
649.68 ; 2.6793e-07 +- 1.1982e-07
650.36 ; 1.6076e-07 +- 9.2814e-08
651.03 ; 5.3586e-08 +- 5.3586e-08
651.7 ; 2.1435e-07 +- 1.0717e-07
652.38 ; 3.751e-07 +- 1.4178e-07
653.05 ; 1.6076e-07 +- 9.2814e-08
653.72 ; 1.0717e-07 +- 7.5783e-08
654.4 ; 0 +- 0
655.07 ; 1.0717e-07 +- 7.5783e-08
655.74 ; 1.6076e-07 +- 9.2814e-08
656.41 ; 1.0717e-07 +- 7.5783e-08
657.09 ; 2.6793e-07 +- 1.1982e-07
657.76 ; 2.1435e-07 +- 1.0717e-07
658.43 ; 1.0717e-07 +- 7.5783e-08
659.11 ; 1.0717e-07 +- 7.5783e-08
659.78 ; 1.6076e-07 +- 9.2814e-08
660.45 ; 1.6076e-07 +- 9.2814e-08
661.12 ; 1.6076e-07 +- 9.2814e-08
661.8 ; 5.3586e-08 +- 5.3586e-08
662.47 ; 3.751e-07 +- 1.4178e-07
663.14 ; 3.2152e-07 +- 1.3126e-07
663.82 ; 2.1435e-07 +- 1.0717e-07
664.49 ; 2.6793e-07 +- 1.1982e-07
665.16 ; 0 +- 0
665.83 ; 1.0717e-07 +- 7.5783e-08
666.51 ; 3.2152e-07 +- 1.3126e-07
667.18 ; 1.0717e-07 +- 7.5783e-08
667.85 ; 1.0717e-07 +- 7.5783e-08
668.53 ; 2.1435e-07 +- 1.0717e-07
669.2 ; 2.1435e-07 +- 1.0717e-07
669.87 ; 2.6793e-07 +- 1.1982e-07
670.54 ; 2.6793e-07 +- 1.1982e-07
671.22 ; 2.1435e-07 +- 1.0717e-07
671.89 ; 1.0717e-07 +- 7.5783e-08
672.56 ; 5.3586e-08 +- 5.3586e-08
673.24 ; 2.6793e-07 +- 1.1982e-07
673.91 ; 2.6793e-07 +- 1.1982e-07
674.58 ; 1.0717e-07 +- 7.5783e-08
675.26 ; 1.6076e-07 +- 9.2814e-08
675.93 ; 1.6076e-07 +- 9.2814e-08
676.6 ; 1.0717e-07 +- 7.5783e-08
677.27 ; 2.1435e-07 +- 1.0717e-07
677.95 ; 1.6076e-07 +- 9.2814e-08
678.62 ; 2.1435e-07 +- 1.0717e-07
679.29 ; 1.6076e-07 +- 9.2814e-08
679.97 ; 5.3586e-08 +- 5.3586e-08
680.64 ; 2.1435e-07 +- 1.0717e-07
681.31 ; 1.0717e-07 +- 7.5783e-08
681.98 ; 1.6076e-07 +- 9.2814e-08
682.66 ; 2.6793e-07 +- 1.1982e-07
683.33 ; 5.3586e-08 +- 5.3586e-08
684 ; 3.2152e-07 +- 1.3126e-07
684.68 ; 1.0717e-07 +- 7.5783e-08
685.35 ; 1.0717e-07 +- 7.5783e-08
686.02 ; 1.6076e-07 +- 9.2814e-08
686.69 ; 2.6793e-07 +- 1.1982e-07
687.37 ; 1.0717e-07 +- 7.5783e-08
688.04 ; 5.3586e-08 +- 5.3586e-08
688.71 ; 1.6076e-07 +- 9.2814e-08
689.39 ; 1.0717e-07 +- 7.5783e-08
690.06 ; 1.6076e-07 +- 9.2814e-08
690.73 ; 5.3586e-08 +- 5.3586e-08
691.4 ; 5.3586e-08 +- 5.3586e-08
692.08 ; 1.6076e-07 +- 9.2814e-08
692.75 ; 5.3586e-08 +- 5.3586e-08
693.42 ; 2.6793e-07 +- 1.1982e-07
694.1 ; 5.3586e-08 +- 5.3586e-08
694.77 ; 1.6076e-07 +- 9.2814e-08
695.44 ; 5.3586e-08 +- 5.3586e-08
696.12 ; 5.3586e-08 +- 5.3586e-08
696.79 ; 5.3586e-08 +- 5.3586e-08
697.46 ; 5.3586e-08 +- 5.3586e-08
698.13 ; 1.6076e-07 +- 9.2814e-08
698.81 ; 5.3586e-08 +- 5.3586e-08
699.48 ; 0 +- 0
700.15 ; 2.6793e-07 +- 1.1982e-07
700.83 ; 1.0717e-07 +- 7.5783e-08
701.5 ; 1.0717e-07 +- 7.5783e-08
702.17 ; 1.6076e-07 +- 9.2814e-08
702.84 ; 0 +- 0
703.52 ; 5.3586e-08 +- 5.3586e-08
704.19 ; 5.3586e-08 +- 5.3586e-08
704.86 ; 2.1435e-07 +- 1.0717e-07
705.54 ; 1.0717e-07 +- 7.5783e-08
706.21 ; 5.3586e-08 +- 5.3586e-08
706.88 ; 1.0717e-07 +- 7.5783e-08
707.55 ; 1.6076e-07 +- 9.2814e-08
708.23 ; 1.0717e-07 +- 7.5783e-08
708.9 ; 0 +- 0
709.57 ; 1.6076e-07 +- 9.2814e-08
710.25 ; 1.0717e-07 +- 7.5783e-08
710.92 ; 0 +- 0
711.59 ; 0 +- 0
712.26 ; 1.6076e-07 +- 9.2814e-08
712.94 ; 0 +- 0
713.61 ; 1.0717e-07 +- 7.5783e-08
714.28 ; 0 +- 0
714.96 ; 2.1435e-07 +- 1.0717e-07
715.63 ; 5.3586e-08 +- 5.3586e-08
716.3 ; 1.0717e-07 +- 7.5783e-08
716.97 ; 1.0717e-07 +- 7.5783e-08
717.65 ; 1.6076e-07 +- 9.2814e-08
718.32 ; 1.6076e-07 +- 9.2814e-08
718.99 ; 1.0717e-07 +- 7.5783e-08
719.67 ; 5.3586e-08 +- 5.3586e-08
720.34 ; 5.3586e-08 +- 5.3586e-08
721.01 ; 5.3586e-08 +- 5.3586e-08
721.69 ; 5.3586e-08 +- 5.3586e-08
722.36 ; 1.0717e-07 +- 7.5783e-08
723.03 ; 2.6793e-07 +- 1.1982e-07
723.7 ; 1.0717e-07 +- 7.5783e-08
724.38 ; 0 +- 0
725.05 ; 1.6076e-07 +- 9.2814e-08
725.72 ; 1.0717e-07 +- 7.5783e-08
726.4 ; 5.3586e-08 +- 5.3586e-08
727.07 ; 0 +- 0
727.74 ; 0 +- 0
728.41 ; 5.3586e-08 +- 5.3586e-08
729.09 ; 5.3586e-08 +- 5.3586e-08
729.76 ; 5.3586e-08 +- 5.3586e-08
730.43 ; 1.6076e-07 +- 9.2814e-08
731.11 ; 5.3586e-08 +- 5.3586e-08
731.78 ; 1.6076e-07 +- 9.2814e-08
732.45 ; 5.3586e-08 +- 5.3586e-08
733.12 ; 5.3586e-08 +- 5.3586e-08
733.8 ; 5.3586e-08 +- 5.3586e-08
734.47 ; 5.3586e-08 +- 5.3586e-08
735.14 ; 5.3586e-08 +- 5.3586e-08
735.82 ; 5.3586e-08 +- 5.3586e-08
736.49 ; 1.0717e-07 +- 7.5783e-08
737.16 ; 0 +- 0
737.83 ; 1.0717e-07 +- 7.5783e-08
738.51 ; 0 +- 0
739.18 ; 1.0717e-07 +- 7.5783e-08
739.85 ; 5.3586e-08 +- 5.3586e-08
740.53 ; 1.0717e-07 +- 7.5783e-08
741.2 ; 5.3586e-08 +- 5.3586e-08
741.87 ; 5.3586e-08 +- 5.3586e-08
742.55 ; 5.3586e-08 +- 5.3586e-08
743.22 ; 0 +- 0
743.89 ; 1.0717e-07 +- 7.5783e-08
744.56 ; 5.3586e-08 +- 5.3586e-08
745.24 ; 5.3586e-08 +- 5.3586e-08
745.91 ; 0 +- 0
746.58 ; 5.3586e-08 +- 5.3586e-08
747.26 ; 0 +- 0
747.93 ; 5.3586e-08 +- 5.3586e-08
748.6 ; 0 +- 0
749.27 ; 5.3586e-08 +- 5.3586e-08
749.95 ; 0 +- 0
750.62 ; 1.0717e-07 +- 7.5783e-08
751.29 ; 5.3586e-08 +- 5.3586e-08
751.97 ; 5.3586e-08 +- 5.3586e-08
752.64 ; 0 +- 0
753.31 ; 0 +- 0
753.98 ; 5.3586e-08 +- 5.3586e-08
754.66 ; 0 +- 0
755.33 ; 0 +- 0
756 ; 0 +- 0
756.68 ; 5.3586e-08 +- 5.3586e-08
757.35 ; 0 +- 0
758.02 ; 1.6076e-07 +- 9.2814e-08
758.69 ; 0 +- 0
759.37 ; 0 +- 0
760.04 ; 0 +- 0
760.71 ; 5.3586e-08 +- 5.3586e-08
761.39 ; 0 +- 0
762.06 ; 5.3586e-08 +- 5.3586e-08
762.73 ; 0 +- 0
763.41 ; 5.3586e-08 +- 5.3586e-08
764.08 ; 1.0717e-07 +- 7.5783e-08
764.75 ; 0 +- 0
765.42 ; 5.3586e-08 +- 5.3586e-08
766.1 ; 0 +- 0
766.77 ; 1.0717e-07 +- 7.5783e-08
767.44 ; 5.3586e-08 +- 5.3586e-08
768.12 ; 0 +- 0
768.79 ; 5.3586e-08 +- 5.3586e-08
769.46 ; 0 +- 0
770.13 ; 5.3586e-08 +- 5.3586e-08
770.81 ; 5.3586e-08 +- 5.3586e-08
771.48 ; 5.3586e-08 +- 5.3586e-08
772.15 ; 0 +- 0
772.83 ; 0 +- 0
773.5 ; 0 +- 0
774.17 ; 0 +- 0
774.84 ; 1.0717e-07 +- 7.5783e-08
775.52 ; 5.3586e-08 +- 5.3586e-08
776.19 ; 0 +- 0
776.86 ; 0 +- 0
777.54 ; 0 +- 0
778.21 ; 0 +- 0
778.88 ; 1.0717e-07 +- 7.5783e-08
779.55 ; 1.0717e-07 +- 7.5783e-08
780.23 ; 0 +- 0
780.9 ; 0 +- 0
781.57 ; 5.3586e-08 +- 5.3586e-08
782.25 ; 0 +- 0
782.92 ; 5.3586e-08 +- 5.3586e-08
783.59 ; 5.3586e-08 +- 5.3586e-08
784.26 ; 5.3586e-08 +- 5.3586e-08
784.94 ; 0 +- 0
785.61 ; 5.3586e-08 +- 5.3586e-08
786.28 ; 0 +- 0
786.96 ; 0 +- 0
787.63 ; 1.0717e-07 +- 7.5783e-08
788.3 ; 0 +- 0
788.98 ; 1.6076e-07 +- 9.2814e-08
789.65 ; 5.3586e-08 +- 5.3586e-08
790.32 ; 5.3586e-08 +- 5.3586e-08
790.99 ; 0 +- 0
791.67 ; 0 +- 0
792.34 ; 5.3586e-08 +- 5.3586e-08
793.01 ; 0 +- 0
793.69 ; 0 +- 0
794.36 ; 5.3586e-08 +- 5.3586e-08
795.03 ; 0 +- 0
795.7 ; 5.3586e-08 +- 5.3586e-08
796.38 ; 0 +- 0
797.05 ; 0 +- 0
797.72 ; 0 +- 0
798.4 ; 5.3586e-08 +- 5.3586e-08
799.07 ; 5.3586e-08 +- 5.3586e-08
799.74 ; 5.3586e-08 +- 5.3586e-08
800.41 ; 5.3586e-08 +- 5.3586e-08
801.09 ; 5.3586e-08 +- 5.3586e-08
801.76 ; 5.3586e-08 +- 5.3586e-08
802.43 ; 5.3586e-08 +- 5.3586e-08
803.11 ; 5.3586e-08 +- 5.3586e-08
803.78 ; 0 +- 0
804.45 ; 0 +- 0
805.12 ; 5.3586e-08 +- 5.3586e-08
805.8 ; 0 +- 0
806.47 ; 0 +- 0
807.14 ; 5.3586e-08 +- 5.3586e-08
807.82 ; 5.3586e-08 +- 5.3586e-08
808.49 ; 5.3586e-08 +- 5.3586e-08
809.16 ; 0 +- 0
809.84 ; 0 +- 0
810.51 ; 0 +- 0
811.18 ; 0 +- 0
811.85 ; 0 +- 0
812.53 ; 0 +- 0
813.2 ; 0 +- 0
813.87 ; 5.3586e-08 +- 5.3586e-08
814.55 ; 0 +- 0
815.22 ; 0 +- 0
815.89 ; 0 +- 0
816.56 ; 5.3586e-08 +- 5.3586e-08
817.24 ; 0 +- 0
817.91 ; 0 +- 0
818.58 ; 5.3586e-08 +- 5.3586e-08
819.26 ; 5.3586e-08 +- 5.3586e-08
819.93 ; 0 +- 0
820.6 ; 0 +- 0
821.27 ; 0 +- 0
821.95 ; 5.3586e-08 +- 5.3586e-08
822.62 ; 5.3586e-08 +- 5.3586e-08
823.29 ; 0 +- 0
823.97 ; 0 +- 0
824.64 ; 5.3586e-08 +- 5.3586e-08
825.31 ; 5.3586e-08 +- 5.3586e-08
825.98 ; 0 +- 0
826.66 ; 0 +- 0
827.33 ; 0 +- 0
828 ; 0 +- 0
828.68 ; 0 +- 0
829.35 ; 0 +- 0
830.02 ; 0 +- 0
830.7 ; 5.3586e-08 +- 5.3586e-08
831.37 ; 0 +- 0
832.04 ; 0 +- 0
832.71 ; 0 +- 0
833.39 ; 0 +- 0
834.06 ; 0 +- 0
834.73 ; 5.3586e-08 +- 5.3586e-08
835.41 ; 0 +- 0
836.08 ; 0 +- 0
836.75 ; 0 +- 0
837.42 ; 0 +- 0
838.1 ; 5.3586e-08 +- 5.3586e-08
838.77 ; 0 +- 0
*dataend:

*dataset:
*location: Figure 2 (5-10% central)
*dscomment: Et EMC distributions for sqrt{s_{NN}}=62.4 GeV Au+Au collisions shown in 5% wide centrality bins.
*yheader: DY/DE_T IN 1/GEV
*xheader: E_T EMC IN GEV
*data: x : y
122.8 ; 0 +- 0
123.48 ; 1.0717e-07 +- 7.5783e-08
124.15 ; 0 +- 0
124.82 ; 0 +- 0
125.5 ; 0 +- 0
126.17 ; 0 +- 0
126.84 ; 5.3586e-08 +- 5.3586e-08
127.51 ; 0 +- 0
128.19 ; 5.3586e-08 +- 5.3586e-08
128.86 ; 1.0717e-07 +- 7.5783e-08
129.53 ; 5.3586e-08 +- 5.3586e-08
130.21 ; 0 +- 0
130.88 ; 1.0717e-07 +- 7.5783e-08
131.55 ; 5.3586e-08 +- 5.3586e-08
132.22 ; 0 +- 0
132.9 ; 5.3586e-08 +- 5.3586e-08
133.57 ; 5.3586e-08 +- 5.3586e-08
134.24 ; 5.3586e-08 +- 5.3586e-08
134.92 ; 1.6076e-07 +- 9.2814e-08
135.59 ; 0 +- 0
136.26 ; 5.3586e-08 +- 5.3586e-08
136.94 ; 1.0717e-07 +- 7.5783e-08
137.61 ; 1.6076e-07 +- 9.2814e-08
138.28 ; 1.0717e-07 +- 7.5783e-08
138.95 ; 1.0717e-07 +- 7.5783e-08
139.63 ; 0 +- 0
140.3 ; 1.0717e-07 +- 7.5783e-08
140.97 ; 2.6793e-07 +- 1.1982e-07
141.65 ; 2.1435e-07 +- 1.0717e-07
142.32 ; 1.6076e-07 +- 9.2814e-08
142.99 ; 2.1435e-07 +- 1.0717e-07
143.66 ; 1.0717e-07 +- 7.5783e-08
144.34 ; 2.1435e-07 +- 1.0717e-07
145.01 ; 3.751e-07 +- 1.4178e-07
145.68 ; 2.1435e-07 +- 1.0717e-07
146.36 ; 1.6076e-07 +- 9.2814e-08
147.03 ; 6.4304e-07 +- 1.8563e-07
147.7 ; 3.2152e-07 +- 1.3126e-07
148.37 ; 3.751e-07 +- 1.4178e-07
149.05 ; 3.751e-07 +- 1.4178e-07
149.72 ; 5.3586e-07 +- 1.6946e-07
150.39 ; 1.0717e-07 +- 7.5783e-08
151.07 ; 2.6793e-07 +- 1.1982e-07
151.74 ; 6.9662e-07 +- 1.9321e-07
152.41 ; 6.9662e-07 +- 1.9321e-07
153.08 ; 3.751e-07 +- 1.4178e-07
153.76 ; 8.038e-07 +- 2.0754e-07
154.43 ; 5.3586e-07 +- 1.6946e-07
155.1 ; 8.038e-07 +- 2.0754e-07
155.78 ; 3.2152e-07 +- 1.3126e-07
156.45 ; 8.038e-07 +- 2.0754e-07
157.12 ; 9.6456e-07 +- 2.2735e-07
157.8 ; 8.038e-07 +- 2.0754e-07
158.47 ; 7.5021e-07 +- 2.005e-07
159.14 ; 8.038e-07 +- 2.0754e-07
159.81 ; 1.4468e-06 +- 2.7844e-07
160.49 ; 1.2861e-06 +- 2.6252e-07
161.16 ; 1.1253e-06 +- 2.4556e-07
161.83 ; 1.6612e-06 +- 2.9836e-07
162.51 ; 1.2325e-06 +- 2.5699e-07
163.18 ; 1.1789e-06 +- 2.5134e-07
163.85 ; 1.3932e-06 +- 2.7324e-07
164.52 ; 2.5721e-06 +- 3.7126e-07
165.2 ; 1.8219e-06 +- 3.1246e-07
165.87 ; 2.0363e-06 +- 3.3033e-07
166.54 ; 1.4468e-06 +- 2.7844e-07
167.22 ; 1.8755e-06 +- 3.1702e-07
167.89 ; 2.4114e-06 +- 3.5947e-07
168.56 ; 2.5721e-06 +- 3.7126e-07
169.23 ; 2.1435e-06 +- 3.3891e-07
169.91 ; 1.9827e-06 +- 3.2595e-07
170.58 ; 2.7329e-06 +- 3.8268e-07
171.25 ; 3.5367e-06 +- 4.3534e-07
171.93 ; 3.1616e-06 +- 4.116e-07
172.6 ; 2.8937e-06 +- 3.9378e-07
173.27 ; 3.3224e-06 +- 4.2194e-07
173.94 ; 3.3224e-06 +- 4.2194e-07
174.62 ; 3.5367e-06 +- 4.3534e-07
175.29 ; 4.1797e-06 +- 4.7326e-07
175.96 ; 3.9118e-06 +- 4.5784e-07
176.64 ; 5.0907e-06 +- 5.223e-07
177.31 ; 3.6975e-06 +- 4.4512e-07
177.98 ; 4.9835e-06 +- 5.1677e-07
178.65 ; 4.8228e-06 +- 5.0837e-07
179.33 ; 4.662e-06 +- 4.9982e-07
180 ; 4.5548e-06 +- 4.9404e-07
180.67 ; 6.5375e-06 +- 5.9188e-07
181.35 ; 6.1624e-06 +- 5.7465e-07
182.02 ; 7.77e-06 +- 6.4527e-07
182.69 ; 8.2523e-06 +- 6.6499e-07
183.37 ; 6.6447e-06 +- 5.9671e-07
184.04 ; 7.1806e-06 +- 6.2031e-07
184.71 ; 7.77e-06 +- 6.4527e-07
185.38 ; 8.1451e-06 +- 6.6066e-07
186.06 ; 8.0915e-06 +- 6.5848e-07
186.73 ; 8.4131e-06 +- 6.7144e-07
187.4 ; 9.0561e-06 +- 6.9662e-07
188.08 ; 8.3059e-06 +- 6.6715e-07
188.75 ; 1.0396e-05 +- 7.4637e-07
189.42 ; 1.2057e-05 +- 8.038e-07
190.09 ; 1.12e-05 +- 7.7469e-07
190.77 ; 1.0717e-05 +- 7.5783e-07
191.44 ; 1.2218e-05 +- 8.0914e-07
192.11 ; 1.4147e-05 +- 8.7068e-07
192.79 ; 1.3236e-05 +- 8.4218e-07
193.46 ; 1.4629e-05 +- 8.8539e-07
194.13 ; 1.4843e-05 +- 8.9186e-07
194.8 ; 1.5272e-05 +- 9.0464e-07
195.48 ; 1.6773e-05 +- 9.4804e-07
196.15 ; 1.7308e-05 +- 9.6307e-07
196.82 ; 1.7737e-05 +- 9.7492e-07
197.5 ; 1.763e-05 +- 9.7197e-07
198.17 ; 1.763e-05 +- 9.7197e-07
198.84 ; 1.9452e-05 +- 1.021e-06
199.51 ; 1.9773e-05 +- 1.0294e-06
200.19 ; 2.1863e-05 +- 1.0824e-06
200.86 ; 2.2024e-05 +- 1.0864e-06
201.53 ; 2.1595e-05 +- 1.0757e-06
202.21 ; 2.3685e-05 +- 1.1266e-06
202.88 ; 2.4703e-05 +- 1.1505e-06
203.55 ; 2.5025e-05 +- 1.158e-06
204.23 ; 2.54e-05 +- 1.1667e-06
204.9 ; 2.6686e-05 +- 1.1958e-06
205.57 ; 2.6632e-05 +- 1.1946e-06
206.24 ; 2.8722e-05 +- 1.2406e-06
206.92 ; 2.8347e-05 +- 1.2325e-06
207.59 ; 2.9365e-05 +- 1.2544e-06
208.26 ; 3.1294e-05 +- 1.295e-06
208.94 ; 3.3706e-05 +- 1.3439e-06
209.61 ; 3.5903e-05 +- 1.387e-06
210.28 ; 3.4992e-05 +- 1.3693e-06
210.95 ; 3.676e-05 +- 1.4035e-06
211.63 ; 3.6975e-05 +- 1.4076e-06
212.3 ; 4.1529e-05 +- 1.4918e-06
212.97 ; 3.9868e-05 +- 1.4616e-06
213.65 ; 3.9922e-05 +- 1.4626e-06
214.32 ; 4.2065e-05 +- 1.5014e-06
214.99 ; 4.3727e-05 +- 1.5307e-06
215.66 ; 4.5334e-05 +- 1.5586e-06
216.34 ; 4.3994e-05 +- 1.5354e-06
217.01 ; 4.9621e-05 +- 1.6306e-06
217.68 ; 4.9889e-05 +- 1.635e-06
218.36 ; 5.0318e-05 +- 1.6421e-06
219.03 ; 5.2086e-05 +- 1.6707e-06
219.7 ; 5.498e-05 +- 1.7164e-06
220.37 ; 5.2568e-05 +- 1.6784e-06
221.05 ; 5.9374e-05 +- 1.7837e-06
221.72 ; 6.0392e-05 +- 1.7989e-06
222.39 ; 6.0285e-05 +- 1.7973e-06
223.07 ; 6.2267e-05 +- 1.8267e-06
223.74 ; 6.4464e-05 +- 1.8586e-06
224.41 ; 6.6661e-05 +- 1.89e-06
225.09 ; 7.3038e-05 +- 1.9783e-06
225.76 ; 6.9662e-05 +- 1.9321e-06
226.43 ; 7.127e-05 +- 1.9543e-06
227.1 ; 7.3788e-05 +- 1.9885e-06
227.78 ; 7.486e-05 +- 2.0029e-06
228.45 ; 7.8558e-05 +- 2.0517e-06
229.12 ; 8.2523e-05 +- 2.1029e-06
229.8 ; 8.3434e-05 +- 2.1145e-06
230.47 ; 8.4934e-05 +- 2.1334e-06
231.14 ; 8.7292e-05 +- 2.1628e-06
231.81 ; 8.7775e-05 +- 2.1688e-06
232.49 ; 9.04e-05 +- 2.201e-06
233.16 ; 9.0507e-05 +- 2.2023e-06
233.83 ; 9.3776e-05 +- 2.2417e-06
234.51 ; 9.5652e-05 +- 2.264e-06
235.18 ; 9.4312e-05 +- 2.2481e-06
235.85 ; 0.00010042 +- 2.3197e-06
236.52 ; 0.00010932 +- 2.4203e-06
237.2 ; 0.00010749 +- 2.4e-06
237.87 ; 0.00010664 +- 2.3905e-06
238.54 ; 0.00011291 +- 2.4597e-06
239.22 ; 0.0001128 +- 2.4586e-06
239.89 ; 0.00011398 +- 2.4714e-06
240.56 ; 0.0001166 +- 2.4997e-06
241.23 ; 0.00011746 +- 2.5089e-06
241.91 ; 0.00012218 +- 2.5587e-06
242.58 ; 0.00012646 +- 2.6032e-06
243.25 ; 0.00012518 +- 2.5899e-06
243.93 ; 0.00013204 +- 2.66e-06
244.6 ; 0.00013691 +- 2.7086e-06
245.27 ; 0.00013772 +- 2.7166e-06
245.94 ; 0.0001405 +- 2.7439e-06
246.62 ; 0.00014538 +- 2.7911e-06
247.29 ; 0.0001427 +- 2.7653e-06
247.96 ; 0.00014876 +- 2.8233e-06
248.64 ; 0.00015385 +- 2.8713e-06
249.31 ; 0.00015604 +- 2.8917e-06
249.98 ; 0.00015058 +- 2.8406e-06
250.66 ; 0.00015819 +- 2.9115e-06
251.33 ; 0.00015363 +- 2.8693e-06
252 ; 0.0001659 +- 2.9816e-06
252.67 ; 0.00016864 +- 3.0061e-06
253.35 ; 0.00016858 +- 3.0056e-06
254.02 ; 0.00017191 +- 3.0351e-06
254.69 ; 0.00017678 +- 3.0778e-06
255.37 ; 0.00017984 +- 3.1043e-06
256.04 ; 0.00017544 +- 3.0662e-06
256.71 ; 0.00017491 +- 3.0615e-06
257.38 ; 0.00018493 +- 3.1479e-06
258.06 ; 0.0001875 +- 3.1698e-06
258.73 ; 0.00019227 +- 3.2098e-06
259.4 ; 0.00019832 +- 3.26e-06
260.08 ; 0.00019205 +- 3.208e-06
260.75 ; 0.00019934 +- 3.2683e-06
261.42 ; 0.00020325 +- 3.3002e-06
262.09 ; 0.00020341 +- 3.3015e-06
262.77 ; 0.00020604 +- 3.3228e-06
263.44 ; 0.00020454 +- 3.3107e-06
264.11 ; 0.00020813 +- 3.3396e-06
264.79 ; 0.00022479 +- 3.4707e-06
265.46 ; 0.0002196 +- 3.4304e-06
266.13 ; 0.00022233 +- 3.4516e-06
266.8 ; 0.0002212 +- 3.4429e-06
267.48 ; 0.00022281 +- 3.4554e-06
268.15 ; 0.00022919 +- 3.5045e-06
268.82 ; 0.00023825 +- 3.5731e-06
269.5 ; 0.00023326 +- 3.5355e-06
270.17 ; 0.00023701 +- 3.5638e-06
270.84 ; 0.00024596 +- 3.6305e-06
271.52 ; 0.00024457 +- 3.6202e-06
272.19 ; 0.00024494 +- 3.6229e-06
272.86 ; 0.00025346 +- 3.6854e-06
273.53 ; 0.00024564 +- 3.6281e-06
274.21 ; 0.0002547 +- 3.6944e-06
274.88 ; 0.00025014 +- 3.6612e-06
275.55 ; 0.00025625 +- 3.7056e-06
276.23 ; 0.00025743 +- 3.7141e-06
276.9 ; 0.00026209 +- 3.7476e-06
277.57 ; 0.00026986 +- 3.8027e-06
278.24 ; 0.00026965 +- 3.8012e-06
278.92 ; 0.00027393 +- 3.8313e-06
279.59 ; 0.00026815 +- 3.7906e-06
280.26 ; 0.00027592 +- 3.8452e-06
280.94 ; 0.00027881 +- 3.8653e-06
281.61 ; 0.00027522 +- 3.8403e-06
282.28 ; 0.00028706 +- 3.9221e-06
282.95 ; 0.0002854 +- 3.9107e-06
283.63 ; 0.00027908 +- 3.8671e-06
284.3 ; 0.00028899 +- 3.9352e-06
284.97 ; 0.00028899 +- 3.9352e-06
285.65 ; 0.00029339 +- 3.965e-06
286.32 ; 0.00029162 +- 3.9531e-06
286.99 ; 0.00028835 +- 3.9308e-06
287.66 ; 0.00029199 +- 3.9556e-06
288.34 ; 0.00030346 +- 4.0325e-06
289.01 ; 0.00030126 +- 4.0179e-06
289.68 ; 0.00030282 +- 4.0283e-06
290.36 ; 0.00030598 +- 4.0492e-06
291.03 ; 0.00030716 +- 4.057e-06
291.7 ; 0.00030898 +- 4.069e-06
292.38 ; 0.00030689 +- 4.0553e-06
293.05 ; 0.00031187 +- 4.088e-06
293.72 ; 0.00031305 +- 4.0958e-06
294.39 ; 0.0003183 +- 4.13e-06
295.07 ; 0.00031203 +- 4.0891e-06
295.74 ; 0.00031787 +- 4.1272e-06
296.41 ; 0.00032248 +- 4.157e-06
297.09 ; 0.00032088 +- 4.1466e-06
297.76 ; 0.0003197 +- 4.139e-06
298.43 ; 0.0003242 +- 4.168e-06
299.1 ; 0.00032355 +- 4.1639e-06
299.78 ; 0.00031514 +- 4.1094e-06
300.45 ; 0.00032607 +- 4.1801e-06
301.12 ; 0.00032516 +- 4.1742e-06
301.8 ; 0.00032918 +- 4.2e-06
302.47 ; 0.00032581 +- 4.1784e-06
303.14 ; 0.00033031 +- 4.2071e-06
303.81 ; 0.00033165 +- 4.2157e-06
304.49 ; 0.0003235 +- 4.1636e-06
305.16 ; 0.00032484 +- 4.1722e-06
305.83 ; 0.00033475 +- 4.2354e-06
306.51 ; 0.00033116 +- 4.2126e-06
307.18 ; 0.00032602 +- 4.1797e-06
307.85 ; 0.0003295 +- 4.202e-06
308.52 ; 0.00032806 +- 4.1928e-06
309.2 ; 0.00033384 +- 4.2296e-06
309.87 ; 0.00034097 +- 4.2745e-06
310.54 ; 0.00033567 +- 4.2411e-06
311.22 ; 0.00032554 +- 4.1766e-06
311.89 ; 0.00033363 +- 4.2282e-06
312.56 ; 0.00033781 +- 4.2546e-06
313.23 ; 0.00033127 +- 4.2133e-06
313.91 ; 0.00033845 +- 4.2587e-06
314.58 ; 0.00033149 +- 4.2146e-06
315.25 ; 0.0003392 +- 4.2634e-06
315.93 ; 0.00032559 +- 4.177e-06
316.6 ; 0.00033293 +- 4.2238e-06
317.27 ; 0.00033234 +- 4.2201e-06
317.95 ; 0.0003295 +- 4.202e-06
318.62 ; 0.00032999 +- 4.2051e-06
319.29 ; 0.00032179 +- 4.1525e-06
319.96 ; 0.0003287 +- 4.1969e-06
320.64 ; 0.00033631 +- 4.2452e-06
321.31 ; 0.00033186 +- 4.217e-06
321.98 ; 0.00033475 +- 4.2354e-06
322.66 ; 0.00033052 +- 4.2085e-06
323.33 ; 0.00032779 +- 4.1911e-06
324 ; 0.00032227 +- 4.1556e-06
324.67 ; 0.000322 +- 4.1539e-06
325.35 ; 0.0003235 +- 4.1636e-06
326.02 ; 0.00032725 +- 4.1876e-06
326.69 ; 0.00032468 +- 4.1711e-06
327.37 ; 0.0003198 +- 4.1397e-06
328.04 ; 0.00031771 +- 4.1262e-06
328.71 ; 0.0003168 +- 4.1202e-06
329.38 ; 0.00031841 +- 4.1307e-06
330.06 ; 0.00031696 +- 4.1213e-06
330.73 ; 0.00031428 +- 4.1038e-06
331.4 ; 0.00030925 +- 4.0708e-06
332.08 ; 0.00031032 +- 4.0779e-06
332.75 ; 0.00031112 +- 4.0831e-06
333.42 ; 0.0003086 +- 4.0666e-06
334.09 ; 0.00031332 +- 4.0975e-06
334.77 ; 0.00031552 +- 4.1119e-06
335.44 ; 0.000304 +- 4.0361e-06
336.11 ; 0.00030164 +- 4.0204e-06
336.79 ; 0.00029966 +- 4.0072e-06
337.46 ; 0.00030325 +- 4.0311e-06
338.13 ; 0.00029783 +- 3.995e-06
338.81 ; 0.00029467 +- 3.9737e-06
339.48 ; 0.00029805 +- 3.9964e-06
340.15 ; 0.00029601 +- 3.9827e-06
340.82 ; 0.00028781 +- 3.9272e-06
341.5 ; 0.00028647 +- 3.918e-06
342.17 ; 0.0002891 +- 3.936e-06
342.84 ; 0.00028101 +- 3.8805e-06
343.52 ; 0.00027913 +- 3.8675e-06
344.19 ; 0.00027693 +- 3.8523e-06
344.86 ; 0.0002734 +- 3.8276e-06
345.53 ; 0.00028058 +- 3.8775e-06
346.21 ; 0.00027463 +- 3.8362e-06
346.88 ; 0.00027243 +- 3.8208e-06
347.55 ; 0.00026707 +- 3.7831e-06
348.23 ; 0.00028128 +- 3.8823e-06
348.9 ; 0.00027511 +- 3.8396e-06
349.57 ; 0.00026322 +- 3.7556e-06
350.24 ; 0.00026777 +- 3.788e-06
350.92 ; 0.00026456 +- 3.7652e-06
351.59 ; 0.0002652 +- 3.7698e-06
352.26 ; 0.00025807 +- 3.7188e-06
352.94 ; 0.00025309 +- 3.6827e-06
353.61 ; 0.00025261 +- 3.6792e-06
354.28 ; 0.00024596 +- 3.6305e-06
354.95 ; 0.00024939 +- 3.6557e-06
355.63 ; 0.00024864 +- 3.6502e-06
356.3 ; 0.00024103 +- 3.5939e-06
356.97 ; 0.00024655 +- 3.6348e-06
357.65 ; 0.00023975 +- 3.5843e-06
358.32 ; 0.00023696 +- 3.5634e-06
358.99 ; 0.00023294 +- 3.533e-06
359.67 ; 0.00022946 +- 3.5065e-06
360.34 ; 0.00023117 +- 3.5196e-06
361.01 ; 0.00023144 +- 3.5216e-06
361.68 ; 0.0002256 +- 3.4769e-06
362.36 ; 0.00023519 +- 3.5501e-06
363.03 ; 0.00022496 +- 3.472e-06
363.7 ; 0.00022271 +- 3.4546e-06
364.38 ; 0.00022163 +- 3.4462e-06
365.05 ; 0.00021863 +- 3.4228e-06
365.72 ; 0.00020674 +- 3.3284e-06
366.39 ; 0.00021054 +- 3.3589e-06
367.07 ; 0.00021145 +- 3.3661e-06
367.74 ; 0.00020588 +- 3.3215e-06
368.41 ; 0.00020272 +- 3.2959e-06
369.09 ; 0.00020641 +- 3.3258e-06
369.76 ; 0.00020175 +- 3.288e-06
370.43 ; 0.00019398 +- 3.2241e-06
371.1 ; 0.00019881 +- 3.2639e-06
371.78 ; 0.00019425 +- 3.2263e-06
372.45 ; 0.00019259 +- 3.2125e-06
373.12 ; 0.00018493 +- 3.1479e-06
373.8 ; 0.00019157 +- 3.204e-06
374.47 ; 0.00018144 +- 3.1182e-06
375.14 ; 0.00017769 +- 3.0858e-06
375.81 ; 0.00017662 +- 3.0764e-06
376.49 ; 0.00017228 +- 3.0384e-06
377.16 ; 0.00017555 +- 3.0671e-06
377.83 ; 0.00017292 +- 3.0441e-06
378.51 ; 0.00017453 +- 3.0582e-06
379.18 ; 0.00016735 +- 2.9946e-06
379.85 ; 0.00016649 +- 2.9869e-06
380.52 ; 0.00016038 +- 2.9316e-06
381.2 ; 0.00015781 +- 2.908e-06
381.87 ; 0.00015781 +- 2.908e-06
382.54 ; 0.0001532 +- 2.8652e-06
383.22 ; 0.00016097 +- 2.937e-06
383.89 ; 0.00015411 +- 2.8738e-06
384.56 ; 0.00015085 +- 2.8431e-06
385.24 ; 0.00015015 +- 2.8365e-06
385.91 ; 0.00014372 +- 2.7751e-06
386.58 ; 0.00014811 +- 2.8172e-06
387.25 ; 0.00013997 +- 2.7387e-06
387.93 ; 0.00013857 +- 2.725e-06
388.6 ; 0.00014093 +- 2.7481e-06
389.27 ; 0.00013418 +- 2.6815e-06
389.95 ; 0.00013188 +- 2.6583e-06
390.62 ; 0.00013054 +- 2.6448e-06
391.29 ; 0.00013011 +- 2.6405e-06
391.96 ; 0.00012759 +- 2.6148e-06
392.64 ; 0.00013155 +- 2.6551e-06
393.31 ; 0.00012646 +- 2.6032e-06
393.98 ; 0.00011896 +- 2.5248e-06
394.66 ; 0.00012127 +- 2.5492e-06
395.33 ; 0.00011821 +- 2.5168e-06
396 ; 0.00011676 +- 2.5014e-06
396.67 ; 0.00011334 +- 2.4644e-06
397.35 ; 0.00011366 +- 2.4679e-06
398.02 ; 0.00011183 +- 2.448e-06
398.69 ; 0.000112 +- 2.4498e-06
399.37 ; 0.00010637 +- 2.3875e-06
400.04 ; 0.00010723 +- 2.3971e-06
400.71 ; 0.00010567 +- 2.3796e-06
401.38 ; 0.00010262 +- 2.345e-06
402.06 ; 0.00010165 +- 2.3339e-06
402.73 ; 0.00010128 +- 2.3296e-06
403.4 ; 9.8331e-05 +- 2.2955e-06
404.08 ; 0.00010069 +- 2.3228e-06
404.75 ; 9.9617e-05 +- 2.3104e-06
405.42 ; 9.3562e-05 +- 2.2391e-06
406.1 ; 9.2865e-05 +- 2.2308e-06
406.77 ; 9.0347e-05 +- 2.2003e-06
407.44 ; 8.7614e-05 +- 2.1668e-06
408.11 ; 8.4506e-05 +- 2.128e-06
408.79 ; 8.6756e-05 +- 2.1561e-06
409.46 ; 8.1719e-05 +- 2.0926e-06
410.13 ; 8.2148e-05 +- 2.0981e-06
410.81 ; 7.8665e-05 +- 2.0531e-06
411.48 ; 8.0433e-05 +- 2.0761e-06
412.15 ; 7.8826e-05 +- 2.0552e-06
412.82 ; 7.9201e-05 +- 2.0601e-06
413.5 ; 7.4646e-05 +- 2e-06
414.17 ; 7.7754e-05 +- 2.0412e-06
414.84 ; 7.4646e-05 +- 2e-06
415.52 ; 7.3788e-05 +- 1.9885e-06
416.19 ; 7.1967e-05 +- 1.9638e-06
416.86 ; 6.6876e-05 +- 1.893e-06
417.53 ; 6.7572e-05 +- 1.9029e-06
418.21 ; 6.5375e-05 +- 1.8717e-06
418.88 ; 6.4411e-05 +- 1.8578e-06
419.55 ; 6.2535e-05 +- 1.8306e-06
420.23 ; 6.141e-05 +- 1.814e-06
420.9 ; 6.4411e-05 +- 1.8578e-06
421.57 ; 5.8784e-05 +- 1.7748e-06
422.24 ; 5.648e-05 +- 1.7397e-06
422.92 ; 5.798e-05 +- 1.7627e-06
423.59 ; 5.6319e-05 +- 1.7372e-06
424.26 ; 5.7284e-05 +- 1.752e-06
424.94 ; 5.4497e-05 +- 1.7089e-06
425.61 ; 5.6962e-05 +- 1.7471e-06
426.28 ; 5.1336e-05 +- 1.6586e-06
426.96 ; 5.0961e-05 +- 1.6525e-06
427.63 ; 5.1604e-05 +- 1.6629e-06
428.3 ; 4.9139e-05 +- 1.6227e-06
428.97 ; 4.8978e-05 +- 1.62e-06
429.65 ; 4.662e-05 +- 1.5806e-06
430.32 ; 4.5227e-05 +- 1.5568e-06
430.99 ; 4.4316e-05 +- 1.541e-06
431.67 ; 4.5441e-05 +- 1.5605e-06
432.34 ; 4.303e-05 +- 1.5185e-06
433.01 ; 4.4423e-05 +- 1.5429e-06
433.68 ; 4.2387e-05 +- 1.5071e-06
434.36 ; 4.1422e-05 +- 1.4899e-06
435.03 ; 3.9868e-05 +- 1.4616e-06
435.7 ; 3.8957e-05 +- 1.4448e-06
436.38 ; 3.7939e-05 +- 1.4258e-06
437.05 ; 3.6546e-05 +- 1.3994e-06
437.72 ; 3.6492e-05 +- 1.3984e-06
438.39 ; 3.5849e-05 +- 1.386e-06
439.07 ; 3.5689e-05 +- 1.3829e-06
439.74 ; 3.5689e-05 +- 1.3829e-06
440.41 ; 3.4456e-05 +- 1.3588e-06
441.09 ; 2.9526e-05 +- 1.2579e-06
441.76 ; 3.2205e-05 +- 1.3137e-06
442.43 ; 2.9365e-05 +- 1.2544e-06
443.1 ; 2.9044e-05 +- 1.2475e-06
443.78 ; 3.0651e-05 +- 1.2816e-06
444.45 ; 2.899e-05 +- 1.2464e-06
445.12 ; 2.9044e-05 +- 1.2475e-06
445.8 ; 2.9258e-05 +- 1.2521e-06
446.47 ; 2.9365e-05 +- 1.2544e-06
447.14 ; 2.7651e-05 +- 1.2172e-06
447.81 ; 2.5936e-05 +- 1.1789e-06
448.49 ; 2.5561e-05 +- 1.1703e-06
449.16 ; 2.5561e-05 +- 1.1703e-06
449.83 ; 2.4757e-05 +- 1.1518e-06
450.51 ; 2.2935e-05 +- 1.1086e-06
451.18 ; 2.4328e-05 +- 1.1418e-06
451.85 ; 2.1059e-05 +- 1.0623e-06
452.53 ; 2.1435e-05 +- 1.0717e-06
453.2 ; 2.1274e-05 +- 1.0677e-06
453.87 ; 2.0899e-05 +- 1.0582e-06
454.54 ; 2.0524e-05 +- 1.0487e-06
455.22 ; 2.1274e-05 +- 1.0677e-06
455.89 ; 1.9613e-05 +- 1.0252e-06
456.56 ; 1.9559e-05 +- 1.0238e-06
457.24 ; 1.9238e-05 +- 1.0153e-06
457.91 ; 1.9345e-05 +- 1.0181e-06
458.58 ; 1.8327e-05 +- 9.9099e-07
459.25 ; 1.7469e-05 +- 9.6753e-07
459.93 ; 1.6237e-05 +- 9.3277e-07
460.6 ; 1.7791e-05 +- 9.7639e-07
461.27 ; 1.8594e-05 +- 9.982e-07
461.95 ; 1.5272e-05 +- 9.0464e-07
462.62 ; 1.7255e-05 +- 9.6157e-07
463.29 ; 1.5701e-05 +- 9.1725e-07
463.96 ; 1.5165e-05 +- 9.0146e-07
464.64 ; 1.3397e-05 +- 8.4728e-07
465.31 ; 1.3075e-05 +- 8.3705e-07
465.98 ; 1.3986e-05 +- 8.6571e-07
466.66 ; 1.3611e-05 +- 8.5403e-07
467.33 ; 1.3075e-05 +- 8.3705e-07
468 ; 1.2218e-05 +- 8.0914e-07
468.67 ; 1.1307e-05 +- 7.7839e-07
469.35 ; 1.1253e-05 +- 7.7654e-07
470.02 ; 1.2914e-05 +- 8.3188e-07
470.69 ; 1.1092e-05 +- 7.7097e-07
471.37 ; 1.0128e-05 +- 7.3669e-07
472.04 ; 9.7527e-06 +- 7.2292e-07
472.71 ; 1.136e-05 +- 7.8023e-07
473.39 ; 9.2169e-06 +- 7.0278e-07
474.06 ; 1.12e-05 +- 7.7469e-07
474.73 ; 1.061e-05 +- 7.5403e-07
475.4 ; 9.5384e-06 +- 7.1493e-07
476.08 ; 9.324e-06 +- 7.0685e-07
476.75 ; 9.2704e-06 +- 7.0482e-07
477.42 ; 8.4131e-06 +- 6.7144e-07
478.1 ; 8.4667e-06 +- 6.7357e-07
478.77 ; 8.1987e-06 +- 6.6283e-07
479.44 ; 8.4131e-06 +- 6.7144e-07
480.11 ; 7.5557e-06 +- 6.363e-07
480.79 ; 8.8418e-06 +- 6.8833e-07
481.46 ; 7.4485e-06 +- 6.3177e-07
482.13 ; 7.2342e-06 +- 6.2262e-07
482.81 ; 6.484e-06 +- 5.8945e-07
483.48 ; 8.7346e-06 +- 6.8415e-07
484.15 ; 6.8055e-06 +- 6.0389e-07
484.82 ; 7.5557e-06 +- 6.363e-07
485.5 ; 6.6447e-06 +- 5.9671e-07
486.17 ; 5.9481e-06 +- 5.6457e-07
486.84 ; 7.5021e-06 +- 6.3404e-07
487.52 ; 6.5375e-06 +- 5.9188e-07
488.19 ; 5.0907e-06 +- 5.223e-07
488.86 ; 6.3768e-06 +- 5.8456e-07
489.53 ; 4.9835e-06 +- 5.1677e-07
490.21 ; 5.1979e-06 +- 5.2776e-07
490.88 ; 6.3232e-06 +- 5.821e-07
491.55 ; 4.3405e-06 +- 4.8228e-07
492.23 ; 5.4122e-06 +- 5.3854e-07
492.9 ; 4.5548e-06 +- 4.9404e-07
493.57 ; 5.0371e-06 +- 5.1954e-07
494.25 ; 4.2869e-06 +- 4.7929e-07
494.92 ; 4.1262e-06 +- 4.7022e-07
495.59 ; 4.3941e-06 +- 4.8525e-07
496.26 ; 3.6439e-06 +- 4.4188e-07
496.94 ; 3.6975e-06 +- 4.4512e-07
497.61 ; 3.9118e-06 +- 4.5784e-07
498.28 ; 3.8046e-06 +- 4.5153e-07
498.96 ; 3.4295e-06 +- 4.2869e-07
499.63 ; 3.9118e-06 +- 4.5784e-07
500.3 ; 3.9654e-06 +- 4.6097e-07
500.97 ; 4.2869e-06 +- 4.7929e-07
501.65 ; 3.1616e-06 +- 4.116e-07
502.32 ; 2.8937e-06 +- 3.9378e-07
502.99 ; 3.2152e-06 +- 4.1508e-07
503.67 ; 3.2688e-06 +- 4.1852e-07
504.34 ; 2.0899e-06 +- 3.3465e-07
505.01 ; 3.4295e-06 +- 4.2869e-07
505.68 ; 3.3224e-06 +- 4.2194e-07
506.36 ; 2.4114e-06 +- 3.5947e-07
507.03 ; 2.4114e-06 +- 3.5947e-07
507.7 ; 2.7329e-06 +- 3.8268e-07
508.38 ; 1.8755e-06 +- 3.1702e-07
509.05 ; 2.3042e-06 +- 3.5139e-07
509.72 ; 2.7865e-06 +- 3.8642e-07
510.39 ; 2.0363e-06 +- 3.3033e-07
511.07 ; 1.9827e-06 +- 3.2595e-07
511.74 ; 2.1435e-06 +- 3.3891e-07
512.41 ; 2.465e-06 +- 3.6344e-07
513.09 ; 2.8937e-06 +- 3.9378e-07
513.76 ; 2.5186e-06 +- 3.6737e-07
514.43 ; 1.9827e-06 +- 3.2595e-07
515.1 ; 1.5004e-06 +- 2.8355e-07
515.78 ; 1.3397e-06 +- 2.6793e-07
516.45 ; 2.0363e-06 +- 3.3033e-07
517.12 ; 2.5186e-06 +- 3.6737e-07
517.8 ; 2.0899e-06 +- 3.3465e-07
518.47 ; 1.8755e-06 +- 3.1702e-07
519.14 ; 1.6612e-06 +- 2.9836e-07
519.82 ; 1.7148e-06 +- 3.0313e-07
520.49 ; 1.2861e-06 +- 2.6252e-07
521.16 ; 1.1253e-06 +- 2.4556e-07
521.83 ; 1.7148e-06 +- 3.0313e-07
522.51 ; 1.3932e-06 +- 2.7324e-07
523.18 ; 1.2861e-06 +- 2.6252e-07
523.85 ; 9.6456e-07 +- 2.2735e-07
524.53 ; 1.3397e-06 +- 2.6793e-07
525.2 ; 1.5004e-06 +- 2.8355e-07
525.87 ; 1.3932e-06 +- 2.7324e-07
526.54 ; 1.2861e-06 +- 2.6252e-07
527.22 ; 8.5738e-07 +- 2.1435e-07
527.89 ; 1.4468e-06 +- 2.7844e-07
528.56 ; 1.0717e-06 +- 2.3965e-07
529.24 ; 1.0717e-06 +- 2.3965e-07
529.91 ; 1.1253e-06 +- 2.4556e-07
530.58 ; 9.6456e-07 +- 2.2735e-07
531.25 ; 8.038e-07 +- 2.0754e-07
531.93 ; 6.4304e-07 +- 1.8563e-07
532.6 ; 9.1097e-07 +- 2.2094e-07
533.27 ; 9.6456e-07 +- 2.2735e-07
533.95 ; 8.5738e-07 +- 2.1435e-07
534.62 ; 1.0181e-06 +- 2.3358e-07
535.29 ; 7.5021e-07 +- 2.005e-07
535.96 ; 6.4304e-07 +- 1.8563e-07
536.64 ; 9.6456e-07 +- 2.2735e-07
537.31 ; 6.9662e-07 +- 1.9321e-07
537.98 ; 6.9662e-07 +- 1.9321e-07
538.66 ; 8.5738e-07 +- 2.1435e-07
539.33 ; 5.3586e-07 +- 1.6946e-07
540 ; 8.038e-07 +- 2.0754e-07
540.68 ; 4.2869e-07 +- 1.5157e-07
541.35 ; 1.0181e-06 +- 2.3358e-07
542.02 ; 7.5021e-07 +- 2.005e-07
542.69 ; 5.8945e-07 +- 1.7773e-07
543.37 ; 8.5738e-07 +- 2.1435e-07
544.04 ; 6.9662e-07 +- 1.9321e-07
544.71 ; 6.4304e-07 +- 1.8563e-07
545.39 ; 4.8228e-07 +- 1.6076e-07
546.06 ; 6.9662e-07 +- 1.9321e-07
546.73 ; 6.4304e-07 +- 1.8563e-07
547.4 ; 6.4304e-07 +- 1.8563e-07
548.08 ; 5.3586e-07 +- 1.6946e-07
548.75 ; 5.3586e-07 +- 1.6946e-07
549.42 ; 4.2869e-07 +- 1.5157e-07
550.1 ; 6.9662e-07 +- 1.9321e-07
550.77 ; 5.8945e-07 +- 1.7773e-07
551.44 ; 4.8228e-07 +- 1.6076e-07
552.11 ; 3.751e-07 +- 1.4178e-07
552.79 ; 3.2152e-07 +- 1.3126e-07
553.46 ; 5.8945e-07 +- 1.7773e-07
554.13 ; 2.6793e-07 +- 1.1982e-07
554.81 ; 4.2869e-07 +- 1.5157e-07
555.48 ; 3.2152e-07 +- 1.3126e-07
556.15 ; 6.4304e-07 +- 1.8563e-07
556.82 ; 4.8228e-07 +- 1.6076e-07
557.5 ; 5.3586e-07 +- 1.6946e-07
558.17 ; 1.6076e-07 +- 9.2814e-08
558.84 ; 2.6793e-07 +- 1.1982e-07
559.52 ; 2.1435e-07 +- 1.0717e-07
560.19 ; 3.2152e-07 +- 1.3126e-07
560.86 ; 1.6076e-07 +- 9.2814e-08
561.54 ; 3.751e-07 +- 1.4178e-07
562.21 ; 3.751e-07 +- 1.4178e-07
562.88 ; 2.6793e-07 +- 1.1982e-07
563.55 ; 3.2152e-07 +- 1.3126e-07
564.23 ; 1.0717e-07 +- 7.5783e-08
564.9 ; 4.2869e-07 +- 1.5157e-07
565.57 ; 2.6793e-07 +- 1.1982e-07
566.25 ; 4.2869e-07 +- 1.5157e-07
566.92 ; 3.2152e-07 +- 1.3126e-07
567.59 ; 2.1435e-07 +- 1.0717e-07
568.26 ; 2.6793e-07 +- 1.1982e-07
568.94 ; 2.6793e-07 +- 1.1982e-07
569.61 ; 5.3586e-08 +- 5.3586e-08
570.28 ; 2.6793e-07 +- 1.1982e-07
570.96 ; 4.8228e-07 +- 1.6076e-07
571.63 ; 1.6076e-07 +- 9.2814e-08
572.3 ; 1.6076e-07 +- 9.2814e-08
572.97 ; 3.751e-07 +- 1.4178e-07
573.65 ; 2.6793e-07 +- 1.1982e-07
574.32 ; 2.6793e-07 +- 1.1982e-07
574.99 ; 1.6076e-07 +- 9.2814e-08
575.67 ; 3.2152e-07 +- 1.3126e-07
576.34 ; 3.2152e-07 +- 1.3126e-07
577.01 ; 2.1435e-07 +- 1.0717e-07
577.68 ; 1.6076e-07 +- 9.2814e-08
578.36 ; 2.6793e-07 +- 1.1982e-07
579.03 ; 3.2152e-07 +- 1.3126e-07
579.7 ; 1.6076e-07 +- 9.2814e-08
580.38 ; 1.0717e-07 +- 7.5783e-08
581.05 ; 1.6076e-07 +- 9.2814e-08
581.72 ; 2.1435e-07 +- 1.0717e-07
582.39 ; 1.6076e-07 +- 9.2814e-08
583.07 ; 2.1435e-07 +- 1.0717e-07
583.74 ; 4.2869e-07 +- 1.5157e-07
584.41 ; 2.1435e-07 +- 1.0717e-07
585.09 ; 3.2152e-07 +- 1.3126e-07
585.76 ; 3.2152e-07 +- 1.3126e-07
586.43 ; 3.751e-07 +- 1.4178e-07
587.11 ; 4.8228e-07 +- 1.6076e-07
587.78 ; 5.3586e-08 +- 5.3586e-08
588.45 ; 1.6076e-07 +- 9.2814e-08
589.12 ; 2.1435e-07 +- 1.0717e-07
589.8 ; 5.3586e-08 +- 5.3586e-08
590.47 ; 2.6793e-07 +- 1.1982e-07
591.14 ; 0 +- 0
591.82 ; 1.0717e-07 +- 7.5783e-08
592.49 ; 0 +- 0
593.16 ; 5.3586e-08 +- 5.3586e-08
593.83 ; 1.6076e-07 +- 9.2814e-08
594.51 ; 5.3586e-08 +- 5.3586e-08
595.18 ; 5.3586e-08 +- 5.3586e-08
595.85 ; 2.6793e-07 +- 1.1982e-07
596.53 ; 1.6076e-07 +- 9.2814e-08
597.2 ; 2.6793e-07 +- 1.1982e-07
597.87 ; 2.1435e-07 +- 1.0717e-07
598.54 ; 2.1435e-07 +- 1.0717e-07
599.22 ; 1.0717e-07 +- 7.5783e-08
599.89 ; 0 +- 0
600.56 ; 2.6793e-07 +- 1.1982e-07
601.24 ; 1.6076e-07 +- 9.2814e-08
601.91 ; 1.0717e-07 +- 7.5783e-08
602.58 ; 1.0717e-07 +- 7.5783e-08
603.25 ; 1.0717e-07 +- 7.5783e-08
603.93 ; 5.3586e-08 +- 5.3586e-08
604.6 ; 2.1435e-07 +- 1.0717e-07
605.27 ; 1.0717e-07 +- 7.5783e-08
605.95 ; 5.3586e-08 +- 5.3586e-08
606.62 ; 1.0717e-07 +- 7.5783e-08
607.29 ; 1.0717e-07 +- 7.5783e-08
607.97 ; 1.0717e-07 +- 7.5783e-08
608.64 ; 1.6076e-07 +- 9.2814e-08
609.31 ; 5.3586e-08 +- 5.3586e-08
609.98 ; 0 +- 0
610.66 ; 1.0717e-07 +- 7.5783e-08
611.33 ; 5.3586e-08 +- 5.3586e-08
612 ; 5.3586e-08 +- 5.3586e-08
612.68 ; 0 +- 0
613.35 ; 2.6793e-07 +- 1.1982e-07
614.02 ; 2.6793e-07 +- 1.1982e-07
614.69 ; 0 +- 0
615.37 ; 1.0717e-07 +- 7.5783e-08
616.04 ; 1.0717e-07 +- 7.5783e-08
616.71 ; 1.0717e-07 +- 7.5783e-08
617.39 ; 0 +- 0
618.06 ; 1.0717e-07 +- 7.5783e-08
618.73 ; 5.3586e-08 +- 5.3586e-08
619.4 ; 1.0717e-07 +- 7.5783e-08
620.08 ; 5.3586e-08 +- 5.3586e-08
620.75 ; 5.3586e-08 +- 5.3586e-08
621.42 ; 1.0717e-07 +- 7.5783e-08
622.1 ; 0 +- 0
622.77 ; 5.3586e-08 +- 5.3586e-08
623.44 ; 1.0717e-07 +- 7.5783e-08
624.11 ; 5.3586e-08 +- 5.3586e-08
624.79 ; 1.0717e-07 +- 7.5783e-08
625.46 ; 0 +- 0
626.13 ; 5.3586e-08 +- 5.3586e-08
626.81 ; 1.0717e-07 +- 7.5783e-08
627.48 ; 5.3586e-08 +- 5.3586e-08
628.15 ; 1.0717e-07 +- 7.5783e-08
628.83 ; 2.1435e-07 +- 1.0717e-07
629.5 ; 0 +- 0
630.17 ; 1.0717e-07 +- 7.5783e-08
630.84 ; 1.0717e-07 +- 7.5783e-08
631.52 ; 5.3586e-08 +- 5.3586e-08
632.19 ; 5.3586e-08 +- 5.3586e-08
632.86 ; 0 +- 0
633.54 ; 5.3586e-08 +- 5.3586e-08
634.21 ; 3.2152e-07 +- 1.3126e-07
634.88 ; 5.3586e-08 +- 5.3586e-08
635.55 ; 5.3586e-08 +- 5.3586e-08
636.23 ; 1.0717e-07 +- 7.5783e-08
636.9 ; 1.0717e-07 +- 7.5783e-08
637.57 ; 1.6076e-07 +- 9.2814e-08
638.25 ; 1.0717e-07 +- 7.5783e-08
638.92 ; 5.3586e-08 +- 5.3586e-08
639.59 ; 0 +- 0
640.26 ; 1.0717e-07 +- 7.5783e-08
640.94 ; 1.6076e-07 +- 9.2814e-08
641.61 ; 1.6076e-07 +- 9.2814e-08
642.28 ; 5.3586e-08 +- 5.3586e-08
642.96 ; 0 +- 0
643.63 ; 5.3586e-08 +- 5.3586e-08
644.3 ; 1.0717e-07 +- 7.5783e-08
644.97 ; 0 +- 0
645.65 ; 0 +- 0
646.32 ; 1.6076e-07 +- 9.2814e-08
646.99 ; 0 +- 0
647.67 ; 1.0717e-07 +- 7.5783e-08
648.34 ; 0 +- 0
649.01 ; 1.0717e-07 +- 7.5783e-08
649.68 ; 1.0717e-07 +- 7.5783e-08
650.36 ; 0 +- 0
651.03 ; 0 +- 0
651.7 ; 0 +- 0
652.38 ; 1.0717e-07 +- 7.5783e-08
653.05 ; 0 +- 0
653.72 ; 5.3586e-08 +- 5.3586e-08
654.4 ; 0 +- 0
655.07 ; 5.3586e-08 +- 5.3586e-08
655.74 ; 5.3586e-08 +- 5.3586e-08
656.41 ; 0 +- 0
657.09 ; 0 +- 0
657.76 ; 0 +- 0
658.43 ; 0 +- 0
659.11 ; 0 +- 0
659.78 ; 5.3586e-08 +- 5.3586e-08
660.45 ; 0 +- 0
661.12 ; 0 +- 0
661.8 ; 0 +- 0
662.47 ; 0 +- 0
663.14 ; 0 +- 0
663.82 ; 1.6076e-07 +- 9.2814e-08
664.49 ; 1.0717e-07 +- 7.5783e-08
665.16 ; 0 +- 0
665.83 ; 1.6076e-07 +- 9.2814e-08
666.51 ; 1.0717e-07 +- 7.5783e-08
667.18 ; 5.3586e-08 +- 5.3586e-08
667.85 ; 1.6076e-07 +- 9.2814e-08
668.53 ; 0 +- 0
669.2 ; 0 +- 0
669.87 ; 1.0717e-07 +- 7.5783e-08
670.54 ; 5.3586e-08 +- 5.3586e-08
671.22 ; 1.6076e-07 +- 9.2814e-08
671.89 ; 0 +- 0
672.56 ; 1.0717e-07 +- 7.5783e-08
673.24 ; 5.3586e-08 +- 5.3586e-08
673.91 ; 0 +- 0
674.58 ; 0 +- 0
675.26 ; 5.3586e-08 +- 5.3586e-08
675.93 ; 0 +- 0
676.6 ; 5.3586e-08 +- 5.3586e-08
677.27 ; 5.3586e-08 +- 5.3586e-08
677.95 ; 1.0717e-07 +- 7.5783e-08
678.62 ; 0 +- 0
679.29 ; 0 +- 0
679.97 ; 2.6793e-07 +- 1.1982e-07
680.64 ; 5.3586e-08 +- 5.3586e-08
681.31 ; 0 +- 0
681.98 ; 1.0717e-07 +- 7.5783e-08
682.66 ; 5.3586e-08 +- 5.3586e-08
683.33 ; 5.3586e-08 +- 5.3586e-08
684 ; 5.3586e-08 +- 5.3586e-08
684.68 ; 0 +- 0
685.35 ; 5.3586e-08 +- 5.3586e-08
686.02 ; 0 +- 0
686.69 ; 5.3586e-08 +- 5.3586e-08
687.37 ; 0 +- 0
688.04 ; 5.3586e-08 +- 5.3586e-08
688.71 ; 0 +- 0
689.39 ; 1.0717e-07 +- 7.5783e-08
690.06 ; 0 +- 0
690.73 ; 5.3586e-08 +- 5.3586e-08
691.4 ; 0 +- 0
692.08 ; 1.0717e-07 +- 7.5783e-08
692.75 ; 0 +- 0
693.42 ; 5.3586e-08 +- 5.3586e-08
694.1 ; 0 +- 0
694.77 ; 5.3586e-08 +- 5.3586e-08
695.44 ; 0 +- 0
696.12 ; 0 +- 0
696.79 ; 0 +- 0
697.46 ; 0 +- 0
698.13 ; 0 +- 0
698.81 ; 0 +- 0
699.48 ; 0 +- 0
700.15 ; 5.3586e-08 +- 5.3586e-08
700.83 ; 0 +- 0
701.5 ; 0 +- 0
702.17 ; 0 +- 0
702.84 ; 5.3586e-08 +- 5.3586e-08
703.52 ; 0 +- 0
704.19 ; 0 +- 0
704.86 ; 0 +- 0
705.54 ; 0 +- 0
706.21 ; 0 +- 0
706.88 ; 1.6076e-07 +- 9.2814e-08
707.55 ; 0 +- 0
708.23 ; 0 +- 0
708.9 ; 0 +- 0
709.57 ; 0 +- 0
710.25 ; 0 +- 0
710.92 ; 0 +- 0
711.59 ; 5.3586e-08 +- 5.3586e-08
712.26 ; 0 +- 0
712.94 ; 0 +- 0
713.61 ; 0 +- 0
714.28 ; 1.0717e-07 +- 7.5783e-08
714.96 ; 5.3586e-08 +- 5.3586e-08
715.63 ; 5.3586e-08 +- 5.3586e-08
716.3 ; 5.3586e-08 +- 5.3586e-08
716.97 ; 0 +- 0
717.65 ; 5.3586e-08 +- 5.3586e-08
718.32 ; 0 +- 0
718.99 ; 0 +- 0
719.67 ; 0 +- 0
720.34 ; 0 +- 0
721.01 ; 5.3586e-08 +- 5.3586e-08
721.69 ; 0 +- 0
722.36 ; 0 +- 0
723.03 ; 0 +- 0
723.7 ; 5.3586e-08 +- 5.3586e-08
724.38 ; 0 +- 0
725.05 ; 0 +- 0
725.72 ; 0 +- 0
726.4 ; 5.3586e-08 +- 5.3586e-08
727.07 ; 0 +- 0
727.74 ; 0 +- 0
728.41 ; 0 +- 0
729.09 ; 0 +- 0
729.76 ; 0 +- 0
730.43 ; 5.3586e-08 +- 5.3586e-08
731.11 ; 0 +- 0
731.78 ; 0 +- 0
732.45 ; 0 +- 0
733.12 ; 0 +- 0
733.8 ; 0 +- 0
734.47 ; 0 +- 0
735.14 ; 0 +- 0
735.82 ; 0 +- 0
736.49 ; 0 +- 0
737.16 ; 0 +- 0
737.83 ; 0 +- 0
738.51 ; 0 +- 0
739.18 ; 1.0717e-07 +- 7.5783e-08
739.85 ; 0 +- 0
740.53 ; 0 +- 0
741.2 ; 0 +- 0
741.87 ; 5.3586e-08 +- 5.3586e-08
742.55 ; 0 +- 0
743.22 ; 0 +- 0
743.89 ; 0 +- 0
744.56 ; 0 +- 0
745.24 ; 0 +- 0
745.91 ; 1.0717e-07 +- 7.5783e-08
746.58 ; 0 +- 0
747.26 ; 0 +- 0
747.93 ; 0 +- 0
748.6 ; 0 +- 0
749.27 ; 0 +- 0
749.95 ; 0 +- 0
750.62 ; 0 +- 0
751.29 ; 0 +- 0
751.97 ; 0 +- 0
752.64 ; 0 +- 0
753.31 ; 2.1435e-07 +- 1.0717e-07
753.98 ; 1.0717e-07 +- 7.5783e-08
754.66 ; 5.3586e-08 +- 5.3586e-08
755.33 ; 5.3586e-08 +- 5.3586e-08
756 ; 5.3586e-08 +- 5.3586e-08
756.68 ; 5.3586e-08 +- 5.3586e-08
757.35 ; 0 +- 0
758.02 ; 0 +- 0
758.69 ; 5.3586e-08 +- 5.3586e-08
759.37 ; 0 +- 0
760.04 ; 0 +- 0
760.71 ; 5.3586e-08 +- 5.3586e-08
761.39 ; 0 +- 0
762.06 ; 5.3586e-08 +- 5.3586e-08
762.73 ; 0 +- 0
763.41 ; 0 +- 0
764.08 ; 0 +- 0
764.75 ; 0 +- 0
765.42 ; 0 +- 0
766.1 ; 0 +- 0
766.77 ; 0 +- 0
767.44 ; 0 +- 0
768.12 ; 0 +- 0
768.79 ; 0 +- 0
769.46 ; 0 +- 0
770.13 ; 0 +- 0
770.81 ; 0 +- 0
771.48 ; 0 +- 0
772.15 ; 1.0717e-07 +- 7.5783e-08
772.83 ; 0 +- 0
773.5 ; 0 +- 0
774.17 ; 0 +- 0
774.84 ; 0 +- 0
775.52 ; 5.3586e-08 +- 5.3586e-08
776.19 ; 0 +- 0
*dataend:

*dataset:
*location: Figure 2 (10-15% central)
*dscomment: Et EMC distributions for sqrt{s_{NN}}=62.4 GeV Au+Au collisions shown in 5% wide centrality bins.
*yheader: DY/DE_T IN 1/GEV
*xheader: E_T EMC IN GEV
*data: x : y
87.141 ; 0 +- 0
87.813 ; 5.3586e-08 +- 5.3586e-08
88.486 ; 5.3586e-08 +- 5.3586e-08
89.159 ; 0 +- 0
89.832 ; 0 +- 0
90.505 ; 5.3586e-08 +- 5.3586e-08
91.178 ; 5.3586e-08 +- 5.3586e-08
91.851 ; 0 +- 0
92.524 ; 0 +- 0
93.197 ; 0 +- 0
93.87 ; 5.3586e-08 +- 5.3586e-08
94.542 ; 5.3586e-08 +- 5.3586e-08
95.215 ; 0 +- 0
95.888 ; 0 +- 0
96.561 ; 0 +- 0
97.234 ; 0 +- 0
97.907 ; 5.3586e-08 +- 5.3586e-08
98.58 ; 1.0717e-07 +- 7.5783e-08
99.253 ; 0 +- 0
99.926 ; 0 +- 0
100.6 ; 2.1435e-07 +- 1.0717e-07
101.27 ; 5.3586e-08 +- 5.3586e-08
101.94 ; 2.6793e-07 +- 1.1982e-07
102.62 ; 1.6076e-07 +- 9.2814e-08
103.29 ; 1.6076e-07 +- 9.2814e-08
103.96 ; 3.2152e-07 +- 1.3126e-07
104.64 ; 3.2152e-07 +- 1.3126e-07
105.31 ; 0 +- 0
105.98 ; 2.1435e-07 +- 1.0717e-07
106.65 ; 5.3586e-08 +- 5.3586e-08
107.33 ; 2.1435e-07 +- 1.0717e-07
108 ; 3.751e-07 +- 1.4178e-07
108.67 ; 6.9662e-07 +- 1.9321e-07
109.35 ; 1.0717e-07 +- 7.5783e-08
110.02 ; 2.6793e-07 +- 1.1982e-07
110.69 ; 2.1435e-07 +- 1.0717e-07
111.36 ; 1.0717e-07 +- 7.5783e-08
112.04 ; 3.751e-07 +- 1.4178e-07
112.71 ; 2.6793e-07 +- 1.1982e-07
113.38 ; 4.2869e-07 +- 1.5157e-07
114.06 ; 2.6793e-07 +- 1.1982e-07
114.73 ; 5.3586e-07 +- 1.6946e-07
115.4 ; 8.038e-07 +- 2.0754e-07
116.08 ; 5.3586e-07 +- 1.6946e-07
116.75 ; 6.9662e-07 +- 1.9321e-07
117.42 ; 4.8228e-07 +- 1.6076e-07
118.09 ; 7.5021e-07 +- 2.005e-07
118.77 ; 9.6456e-07 +- 2.2735e-07
119.44 ; 9.1097e-07 +- 2.2094e-07
120.11 ; 1.4468e-06 +- 2.7844e-07
120.79 ; 1.0181e-06 +- 2.3358e-07
121.46 ; 1.2861e-06 +- 2.6252e-07
122.13 ; 1.3397e-06 +- 2.6793e-07
122.8 ; 1.7684e-06 +- 3.0783e-07
123.48 ; 2.1435e-06 +- 3.3891e-07
124.15 ; 1.7684e-06 +- 3.0783e-07
124.82 ; 1.7684e-06 +- 3.0783e-07
125.5 ; 2.8937e-06 +- 3.9378e-07
126.17 ; 1.4468e-06 +- 2.7844e-07
126.84 ; 2.0899e-06 +- 3.3465e-07
127.51 ; 2.197e-06 +- 3.4312e-07
128.19 ; 2.6793e-06 +- 3.7891e-07
128.86 ; 3.0008e-06 +- 4.01e-07
129.53 ; 2.9473e-06 +- 3.9741e-07
130.21 ; 3.5367e-06 +- 4.3534e-07
130.88 ; 4.1797e-06 +- 4.7326e-07
131.55 ; 3.2688e-06 +- 4.1852e-07
132.22 ; 4.1262e-06 +- 4.7022e-07
132.9 ; 3.8582e-06 +- 4.547e-07
133.57 ; 4.0726e-06 +- 4.6716e-07
134.24 ; 4.2869e-06 +- 4.7929e-07
134.92 ; 4.2333e-06 +- 4.7629e-07
135.59 ; 4.0726e-06 +- 4.6716e-07
136.26 ; 5.5194e-06 +- 5.4384e-07
136.94 ; 6.1624e-06 +- 5.7465e-07
137.61 ; 6.5911e-06 +- 5.943e-07
138.28 ; 6.0017e-06 +- 5.6711e-07
138.95 ; 8.0915e-06 +- 6.5848e-07
139.63 ; 7.6093e-06 +- 6.3856e-07
140.3 ; 7.7164e-06 +- 6.4304e-07
140.97 ; 8.1451e-06 +- 6.6066e-07
141.65 ; 7.7164e-06 +- 6.4304e-07
142.32 ; 8.3059e-06 +- 6.6715e-07
142.99 ; 9.2704e-06 +- 7.0482e-07
143.66 ; 8.5202e-06 +- 6.757e-07
144.34 ; 1.2378e-05 +- 8.1444e-07
145.01 ; 1.2432e-05 +- 8.162e-07
145.68 ; 1.2325e-05 +- 8.1268e-07
146.36 ; 1.2539e-05 +- 8.1971e-07
147.03 ; 1.3665e-05 +- 8.5571e-07
147.7 ; 1.479e-05 +- 8.9024e-07
148.37 ; 1.4736e-05 +- 8.8863e-07
149.05 ; 1.7201e-05 +- 9.6008e-07
149.72 ; 1.6826e-05 +- 9.4955e-07
150.39 ; 1.7148e-05 +- 9.5858e-07
151.07 ; 1.9398e-05 +- 1.0196e-06
151.74 ; 1.8273e-05 +- 9.8954e-07
152.41 ; 2.0577e-05 +- 1.0501e-06
153.08 ; 1.9666e-05 +- 1.0266e-06
153.76 ; 2.0845e-05 +- 1.0569e-06
154.43 ; 2.1167e-05 +- 1.065e-06
155.1 ; 2.4543e-05 +- 1.1468e-06
155.78 ; 2.3203e-05 +- 1.1151e-06
156.45 ; 2.2506e-05 +- 1.0982e-06
157.12 ; 2.5882e-05 +- 1.1777e-06
157.8 ; 2.8722e-05 +- 1.2406e-06
158.47 ; 2.9633e-05 +- 1.2601e-06
159.14 ; 3.0759e-05 +- 1.2838e-06
159.81 ; 3.4188e-05 +- 1.3535e-06
160.49 ; 3.0598e-05 +- 1.2805e-06
161.16 ; 3.3974e-05 +- 1.3493e-06
161.83 ; 3.6332e-05 +- 1.3953e-06
162.51 ; 3.6224e-05 +- 1.3932e-06
163.18 ; 3.9654e-05 +- 1.4577e-06
163.85 ; 4.2494e-05 +- 1.509e-06
164.52 ; 4.1744e-05 +- 1.4956e-06
165.2 ; 4.244e-05 +- 1.5081e-06
165.87 ; 4.437e-05 +- 1.5419e-06
166.54 ; 4.6835e-05 +- 1.5842e-06
167.22 ; 4.9085e-05 +- 1.6218e-06
167.89 ; 5.1604e-05 +- 1.6629e-06
168.56 ; 5.289e-05 +- 1.6835e-06
169.23 ; 5.7016e-05 +- 1.7479e-06
169.91 ; 5.5837e-05 +- 1.7298e-06
170.58 ; 5.8409e-05 +- 1.7692e-06
171.25 ; 5.798e-05 +- 1.7627e-06
171.93 ; 6.275e-05 +- 1.8337e-06
172.6 ; 6.7037e-05 +- 1.8953e-06
173.27 ; 6.2267e-05 +- 1.8267e-06
173.94 ; 6.6447e-05 +- 1.887e-06
174.62 ; 6.9287e-05 +- 1.9269e-06
175.29 ; 7.2449e-05 +- 1.9703e-06
175.96 ; 7.7057e-05 +- 2.032e-06
176.64 ; 8.0594e-05 +- 2.0782e-06
177.31 ; 8.1023e-05 +- 2.0837e-06
177.98 ; 8.3327e-05 +- 2.1131e-06
178.65 ; 8.8846e-05 +- 2.182e-06
179.33 ; 8.6917e-05 +- 2.1581e-06
180 ; 9.0079e-05 +- 2.197e-06
180.67 ; 9.2115e-05 +- 2.2217e-06
181.35 ; 8.9275e-05 +- 2.1872e-06
182.02 ; 9.5652e-05 +- 2.264e-06
182.69 ; 9.9242e-05 +- 2.3061e-06
183.37 ; 0.00010053 +- 2.321e-06
184.04 ; 0.00010648 +- 2.3887e-06
184.71 ; 0.0001076 +- 2.4012e-06
185.38 ; 0.00011301 +- 2.4609e-06
186.06 ; 0.00011644 +- 2.498e-06
186.73 ; 0.00011746 +- 2.5089e-06
187.4 ; 0.00012218 +- 2.5587e-06
188.08 ; 0.00011693 +- 2.5031e-06
188.75 ; 0.00012555 +- 2.5938e-06
189.42 ; 0.00013054 +- 2.6448e-06
190.09 ; 0.00013381 +- 2.6777e-06
190.77 ; 0.00013498 +- 2.6895e-06
191.44 ; 0.00014136 +- 2.7523e-06
192.11 ; 0.00014731 +- 2.8096e-06
192.79 ; 0.00014667 +- 2.8034e-06
193.46 ; 0.00015245 +- 2.8582e-06
194.13 ; 0.00015733 +- 2.9036e-06
194.8 ; 0.00015744 +- 2.9046e-06
195.48 ; 0.00016376 +- 2.9623e-06
196.15 ; 0.00016103 +- 2.9375e-06
196.82 ; 0.00017271 +- 3.0422e-06
197.5 ; 0.00016907 +- 3.0099e-06
198.17 ; 0.00016746 +- 2.9956e-06
198.84 ; 0.00017721 +- 3.0816e-06
199.51 ; 0.00017871 +- 3.0946e-06
200.19 ; 0.0001875 +- 3.1698e-06
200.86 ; 0.00018868 +- 3.1797e-06
201.53 ; 0.00019564 +- 3.2379e-06
202.21 ; 0.00019736 +- 3.252e-06
202.88 ; 0.00020036 +- 3.2767e-06
203.55 ; 0.00020454 +- 3.3107e-06
204.23 ; 0.00021376 +- 3.3844e-06
204.9 ; 0.00021285 +- 3.3772e-06
205.57 ; 0.00021424 +- 3.3883e-06
206.24 ; 0.00021665 +- 3.4073e-06
206.92 ; 0.00022431 +- 3.467e-06
207.59 ; 0.00022217 +- 3.4504e-06
208.26 ; 0.00022908 +- 3.5037e-06
208.94 ; 0.00022919 +- 3.5045e-06
209.61 ; 0.00023991 +- 3.5855e-06
210.28 ; 0.00024446 +- 3.6194e-06
210.95 ; 0.00024757 +- 3.6423e-06
211.63 ; 0.00024505 +- 3.6237e-06
212.3 ; 0.00025518 +- 3.6978e-06
212.97 ; 0.00025636 +- 3.7064e-06
213.65 ; 0.00026456 +- 3.7652e-06
214.32 ; 0.00026622 +- 3.777e-06
214.99 ; 0.00026129 +- 3.7419e-06
215.66 ; 0.00027083 +- 3.8095e-06
216.34 ; 0.00027415 +- 3.8328e-06
217.01 ; 0.00027865 +- 3.8642e-06
217.68 ; 0.00027972 +- 3.8716e-06
218.36 ; 0.00028545 +- 3.9111e-06
219.03 ; 0.00028208 +- 3.8879e-06
219.7 ; 0.00028819 +- 3.9298e-06
220.37 ; 0.00028787 +- 3.9276e-06
221.05 ; 0.00029296 +- 3.9621e-06
221.72 ; 0.00030014 +- 4.0104e-06
222.39 ; 0.00029601 +- 3.9827e-06
223.07 ; 0.00030362 +- 4.0336e-06
223.74 ; 0.00030576 +- 4.0478e-06
224.41 ; 0.00030576 +- 4.0478e-06
225.09 ; 0.00031123 +- 4.0838e-06
225.76 ; 0.00031568 +- 4.1129e-06
226.43 ; 0.00032141 +- 4.1501e-06
227.1 ; 0.00032222 +- 4.1553e-06
227.78 ; 0.00032468 +- 4.1711e-06
228.45 ; 0.00033057 +- 4.2088e-06
229.12 ; 0.00032859 +- 4.1962e-06
229.8 ; 0.00033406 +- 4.231e-06
230.47 ; 0.00033256 +- 4.2214e-06
231.14 ; 0.00033968 +- 4.2664e-06
231.81 ; 0.00034092 +- 4.2742e-06
232.49 ; 0.00034574 +- 4.3043e-06
233.16 ; 0.00035222 +- 4.3445e-06
233.83 ; 0.00034965 +- 4.3286e-06
234.51 ; 0.00034413 +- 4.2943e-06
235.18 ; 0.00035608 +- 4.3682e-06
235.85 ; 0.00035131 +- 4.3388e-06
236.52 ; 0.00035442 +- 4.358e-06
237.2 ; 0.00036112 +- 4.399e-06
237.87 ; 0.00035635 +- 4.3698e-06
238.54 ; 0.00035619 +- 4.3689e-06
239.22 ; 0.00036353 +- 4.4136e-06
239.89 ; 0.00036348 +- 4.4133e-06
240.56 ; 0.00036878 +- 4.4454e-06
241.23 ; 0.00036733 +- 4.4367e-06
241.91 ; 0.00036964 +- 4.4506e-06
242.58 ; 0.00036492 +- 4.4221e-06
243.25 ; 0.00036471 +- 4.4208e-06
243.93 ; 0.00037017 +- 4.4538e-06
244.6 ; 0.00037564 +- 4.4866e-06
245.27 ; 0.00037125 +- 4.4602e-06
245.94 ; 0.0003773 +- 4.4965e-06
246.62 ; 0.00036798 +- 4.4406e-06
247.29 ; 0.00037762 +- 4.4984e-06
247.96 ; 0.00037827 +- 4.5022e-06
248.64 ; 0.00037505 +- 4.483e-06
249.31 ; 0.00037205 +- 4.4651e-06
249.98 ; 0.00037912 +- 4.5073e-06
250.66 ; 0.00037543 +- 4.4853e-06
251.33 ; 0.0003832 +- 4.5315e-06
252 ; 0.00038641 +- 4.5504e-06
252.67 ; 0.00037805 +- 4.5009e-06
253.35 ; 0.00038389 +- 4.5356e-06
254.02 ; 0.00038545 +- 4.5447e-06
254.69 ; 0.00037527 +- 4.4843e-06
255.37 ; 0.00038143 +- 4.521e-06
256.04 ; 0.00038405 +- 4.5365e-06
256.71 ; 0.00037859 +- 4.5041e-06
257.38 ; 0.00037714 +- 4.4955e-06
258.06 ; 0.00037928 +- 4.5083e-06
258.73 ; 0.000378 +- 4.5006e-06
259.4 ; 0.00037666 +- 4.4926e-06
260.08 ; 0.00037532 +- 4.4846e-06
260.75 ; 0.00037484 +- 4.4818e-06
261.42 ; 0.00036835 +- 4.4428e-06
262.09 ; 0.00037559 +- 4.4862e-06
262.77 ; 0.00037076 +- 4.4573e-06
263.44 ; 0.00037468 +- 4.4808e-06
264.11 ; 0.00036937 +- 4.449e-06
264.79 ; 0.00037114 +- 4.4596e-06
265.46 ; 0.00037001 +- 4.4528e-06
266.13 ; 0.00036808 +- 4.4412e-06
266.8 ; 0.00036466 +- 4.4205e-06
267.48 ; 0.00036519 +- 4.4237e-06
268.15 ; 0.00036208 +- 4.4049e-06
268.82 ; 0.00035914 +- 4.3869e-06
269.5 ; 0.00036514 +- 4.4234e-06
270.17 ; 0.00036299 +- 4.4104e-06
270.84 ; 0.00034853 +- 4.3216e-06
271.52 ; 0.00035662 +- 4.3715e-06
272.19 ; 0.00035051 +- 4.3339e-06
272.86 ; 0.00035201 +- 4.3431e-06
273.53 ; 0.00034269 +- 4.2852e-06
274.21 ; 0.00033867 +- 4.26e-06
274.88 ; 0.00034488 +- 4.299e-06
275.55 ; 0.00034199 +- 4.2809e-06
276.23 ; 0.00033786 +- 4.255e-06
276.9 ; 0.00034092 +- 4.2742e-06
277.57 ; 0.00032752 +- 4.1893e-06
278.24 ; 0.00033347 +- 4.2272e-06
278.92 ; 0.0003362 +- 4.2445e-06
279.59 ; 0.00033149 +- 4.2146e-06
280.26 ; 0.00032709 +- 4.1866e-06
280.94 ; 0.00031804 +- 4.1282e-06
281.61 ; 0.00031107 +- 4.0828e-06
282.28 ; 0.00031879 +- 4.1331e-06
282.95 ; 0.000313 +- 4.0954e-06
283.63 ; 0.00031139 +- 4.0849e-06
284.3 ; 0.00030919 +- 4.0705e-06
284.97 ; 0.00030346 +- 4.0325e-06
285.65 ; 0.00030673 +- 4.0542e-06
286.32 ; 0.00030421 +- 4.0375e-06
286.99 ; 0.00030512 +- 4.0436e-06
287.66 ; 0.00029767 +- 3.9939e-06
288.34 ; 0.00030164 +- 4.0204e-06
289.01 ; 0.00029028 +- 3.944e-06
289.68 ; 0.00027908 +- 3.8671e-06
290.36 ; 0.0002809 +- 3.8797e-06
291.03 ; 0.00028369 +- 3.8989e-06
291.7 ; 0.00028208 +- 3.8879e-06
292.38 ; 0.00027731 +- 3.8549e-06
293.05 ; 0.00027061 +- 3.808e-06
293.72 ; 0.00027045 +- 3.8069e-06
294.39 ; 0.0002667 +- 3.7804e-06
295.07 ; 0.00026579 +- 3.7739e-06
295.74 ; 0.00026059 +- 3.7369e-06
296.41 ; 0.00024971 +- 3.658e-06
297.09 ; 0.00025046 +- 3.6635e-06
297.76 ; 0.00025153 +- 3.6714e-06
298.43 ; 0.00024955 +- 3.6569e-06
299.1 ; 0.00025095 +- 3.667e-06
299.78 ; 0.00024376 +- 3.6142e-06
300.45 ; 0.00023492 +- 3.5481e-06
301.12 ; 0.00023658 +- 3.5606e-06
301.8 ; 0.00023701 +- 3.5638e-06
302.47 ; 0.00023123 +- 3.52e-06
303.14 ; 0.00022769 +- 3.493e-06
303.81 ; 0.00022388 +- 3.4637e-06
304.49 ; 0.0002256 +- 3.4769e-06
305.16 ; 0.0002204 +- 3.4366e-06
305.83 ; 0.00021552 +- 3.3984e-06
306.51 ; 0.00022072 +- 3.4391e-06
307.18 ; 0.00021574 +- 3.4001e-06
307.85 ; 0.00020733 +- 3.3331e-06
308.52 ; 0.00020947 +- 3.3503e-06
309.2 ; 0.00020138 +- 3.285e-06
309.87 ; 0.00020647 +- 3.3262e-06
310.54 ; 0.00019313 +- 3.217e-06
311.22 ; 0.00019682 +- 3.2476e-06
311.89 ; 0.00018734 +- 3.1684e-06
312.56 ; 0.00018798 +- 3.1738e-06
313.23 ; 0.00017775 +- 3.0862e-06
313.91 ; 0.00018316 +- 3.1329e-06
314.58 ; 0.0001868 +- 3.1639e-06
315.25 ; 0.00018123 +- 3.1163e-06
315.93 ; 0.0001763 +- 3.0736e-06
316.6 ; 0.0001696 +- 3.0147e-06
317.27 ; 0.00016778 +- 2.9984e-06
317.95 ; 0.0001666 +- 2.9879e-06
318.62 ; 0.00016478 +- 2.9715e-06
319.29 ; 0.00015283 +- 2.8617e-06
319.96 ; 0.00015969 +- 2.9252e-06
320.64 ; 0.00015277 +- 2.8612e-06
321.31 ; 0.00014699 +- 2.8065e-06
321.98 ; 0.00014763 +- 2.8126e-06
322.66 ; 0.00014672 +- 2.804e-06
323.33 ; 0.0001479 +- 2.8152e-06
324 ; 0.00014399 +- 2.7777e-06
324.67 ; 0.00014195 +- 2.758e-06
325.35 ; 0.00013798 +- 2.7192e-06
326.02 ; 0.00013906 +- 2.7298e-06
326.69 ; 0.00013123 +- 2.6519e-06
327.37 ; 0.00012593 +- 2.5977e-06
328.04 ; 0.00013016 +- 2.641e-06
328.71 ; 0.00012566 +- 2.5949e-06
329.38 ; 0.00012143 +- 2.5508e-06
330.06 ; 0.00012287 +- 2.566e-06
330.73 ; 0.00011928 +- 2.5282e-06
331.4 ; 0.00011993 +- 2.535e-06
332.08 ; 0.00010937 +- 2.4209e-06
332.75 ; 0.00011044 +- 2.4327e-06
333.42 ; 0.0001098 +- 2.4256e-06
334.09 ; 0.00010583 +- 2.3814e-06
334.77 ; 0.00010658 +- 2.3899e-06
335.44 ; 0.0001061 +- 2.3844e-06
336.11 ; 9.9403e-05 +- 2.308e-06
336.79 ; 0.00010155 +- 2.3327e-06
337.46 ; 9.7956e-05 +- 2.2911e-06
338.13 ; 9.6188e-05 +- 2.2703e-06
338.81 ; 9.4098e-05 +- 2.2455e-06
339.48 ; 9.1258e-05 +- 2.2114e-06
340.15 ; 8.9918e-05 +- 2.1951e-06
340.82 ; 8.815e-05 +- 2.1734e-06
341.5 ; 8.472e-05 +- 2.1307e-06
342.17 ; 8.3005e-05 +- 2.109e-06
342.84 ; 8.4077e-05 +- 2.1226e-06
343.52 ; 8.1773e-05 +- 2.0933e-06
344.19 ; 8.2523e-05 +- 2.1029e-06
344.86 ; 7.5664e-05 +- 2.0136e-06
345.53 ; 7.77e-05 +- 2.0405e-06
346.21 ; 7.7272e-05 +- 2.0349e-06
346.88 ; 7.1645e-05 +- 1.9594e-06
347.55 ; 7.0734e-05 +- 1.9469e-06
348.23 ; 6.9234e-05 +- 1.9261e-06
348.9 ; 6.9126e-05 +- 1.9246e-06
349.57 ; 6.8055e-05 +- 1.9097e-06
350.24 ; 6.2482e-05 +- 1.8298e-06
350.92 ; 6.6286e-05 +- 1.8847e-06
351.59 ; 6.2803e-05 +- 1.8345e-06
352.26 ; 6.1356e-05 +- 1.8132e-06
352.94 ; 5.8141e-05 +- 1.7651e-06
353.61 ; 5.5408e-05 +- 1.7231e-06
354.28 ; 5.5676e-05 +- 1.7273e-06
354.95 ; 5.3211e-05 +- 1.6886e-06
355.63 ; 5.5998e-05 +- 1.7323e-06
356.3 ; 5.3479e-05 +- 1.6929e-06
356.97 ; 5.1657e-05 +- 1.6638e-06
357.65 ; 5.3318e-05 +- 1.6903e-06
358.32 ; 4.8871e-05 +- 1.6183e-06
358.99 ; 4.9139e-05 +- 1.6227e-06
359.67 ; 4.8656e-05 +- 1.6147e-06
360.34 ; 4.8335e-05 +- 1.6094e-06
361.01 ; 4.5656e-05 +- 1.5641e-06
361.68 ; 4.4102e-05 +- 1.5373e-06
362.36 ; 4.3244e-05 +- 1.5223e-06
363.03 ; 4.2816e-05 +- 1.5147e-06
363.7 ; 3.9868e-05 +- 1.4616e-06
364.38 ; 4.1905e-05 +- 1.4985e-06
365.05 ; 4.0297e-05 +- 1.4695e-06
365.72 ; 3.5956e-05 +- 1.3881e-06
366.39 ; 3.66e-05 +- 1.4004e-06
367.07 ; 3.5635e-05 +- 1.3819e-06
367.74 ; 3.2795e-05 +- 1.3257e-06
368.41 ; 3.5474e-05 +- 1.3787e-06
369.09 ; 3.5421e-05 +- 1.3777e-06
369.76 ; 3.4081e-05 +- 1.3514e-06
370.43 ; 3.2527e-05 +- 1.3202e-06
371.1 ; 3.2098e-05 +- 1.3115e-06
371.78 ; 3.0866e-05 +- 1.2861e-06
372.45 ; 2.8508e-05 +- 1.236e-06
373.12 ; 2.8401e-05 +- 1.2337e-06
373.8 ; 2.899e-05 +- 1.2464e-06
374.47 ; 2.6472e-05 +- 1.191e-06
375.14 ; 2.7704e-05 +- 1.2184e-06
375.81 ; 2.5989e-05 +- 1.1801e-06
376.49 ; 2.5186e-05 +- 1.1617e-06
377.16 ; 2.3632e-05 +- 1.1253e-06
377.83 ; 2.3792e-05 +- 1.1291e-06
378.51 ; 2.1488e-05 +- 1.0731e-06
379.18 ; 2.3846e-05 +- 1.1304e-06
379.85 ; 2.0684e-05 +- 1.0528e-06
380.52 ; 2.1649e-05 +- 1.0771e-06
381.2 ; 1.9505e-05 +- 1.0224e-06
381.87 ; 1.9398e-05 +- 1.0196e-06
382.54 ; 1.8809e-05 +- 1.0039e-06
383.22 ; 2.0095e-05 +- 1.0377e-06
383.89 ; 1.8219e-05 +- 9.8808e-07
384.56 ; 1.9666e-05 +- 1.0266e-06
385.24 ; 1.8541e-05 +- 9.9676e-07
385.91 ; 1.7523e-05 +- 9.6901e-07
386.58 ; 1.8059e-05 +- 9.8372e-07
387.25 ; 1.629e-05 +- 9.3431e-07
387.93 ; 1.5379e-05 +- 9.0781e-07
388.6 ; 1.6933e-05 +- 9.5257e-07
389.27 ; 1.4576e-05 +- 8.8377e-07
389.95 ; 1.4736e-05 +- 8.8863e-07
390.62 ; 1.5754e-05 +- 9.1882e-07
391.29 ; 1.3397e-05 +- 8.4728e-07
391.96 ; 1.2378e-05 +- 8.1444e-07
392.64 ; 1.3236e-05 +- 8.4218e-07
393.31 ; 1.0932e-05 +- 7.6537e-07
393.98 ; 1.3129e-05 +- 8.3876e-07
394.66 ; 1.0985e-05 +- 7.6724e-07
395.33 ; 1.0664e-05 +- 7.5593e-07
396 ; 1.0503e-05 +- 7.5021e-07
396.67 ; 1.1414e-05 +- 7.8207e-07
397.35 ; 1.1039e-05 +- 7.6911e-07
398.02 ; 1.1521e-05 +- 7.8573e-07
398.69 ; 1.1146e-05 +- 7.7283e-07
399.37 ; 9.8063e-06 +- 7.249e-07
400.04 ; 8.681e-06 +- 6.8204e-07
400.71 ; 8.7882e-06 +- 6.8624e-07
401.38 ; 1.12e-05 +- 7.7469e-07
402.06 ; 8.5202e-06 +- 6.757e-07
402.73 ; 8.7346e-06 +- 6.8415e-07
403.4 ; 7.5021e-06 +- 6.3404e-07
404.08 ; 8.1451e-06 +- 6.6066e-07
404.75 ; 7.3949e-06 +- 6.295e-07
405.42 ; 7.2878e-06 +- 6.2492e-07
406.1 ; 6.9662e-06 +- 6.1098e-07
406.77 ; 6.7519e-06 +- 6.0151e-07
407.44 ; 7.9844e-06 +- 6.5411e-07
408.11 ; 6.5911e-06 +- 5.943e-07
408.79 ; 5.7873e-06 +- 5.5689e-07
409.46 ; 5.8945e-06 +- 5.6202e-07
410.13 ; 5.6266e-06 +- 5.491e-07
410.81 ; 5.8945e-06 +- 5.6202e-07
411.48 ; 6.2696e-06 +- 5.7963e-07
412.15 ; 5.8945e-06 +- 5.6202e-07
412.82 ; 5.6266e-06 +- 5.491e-07
413.5 ; 6.1624e-06 +- 5.7465e-07
414.17 ; 5.7873e-06 +- 5.5689e-07
414.84 ; 5.7337e-06 +- 5.543e-07
415.52 ; 4.3941e-06 +- 4.8525e-07
416.19 ; 5.0907e-06 +- 5.223e-07
