*author: ADLER
*reference: PRC 89,044905 (2014) : 2014
*reference: ARXIV:1312.6676 : 2013
*doi: 10.1103/PhysRevC.89.044905
*status: Encoded 21 APR 2014 by JTM
*title: Transverse-energy distributions at midrapidity in p+p, d+Au, and Au+Au collisions at sqrt{s_{NN}} = 62.4-200 GeV and implications for particle-production models
*inspireId: 1273625
*detector: PHENIX
*experiment: BNL-RHIC-PHENIX

*dataset:
*location: Figure 12
*dscomment: Corrected dE_T/deta distributions at sqrt{s_{NN}}=200 GeV for five sectors of PbSc in d+Au collisions.
*yheader: DY/DE_T IN 1/GEV
*xheader: E_T IN GEV
*data: x : y
6.184 ; 0.01536 +- 1.332e-05
6.835 ; 0.01507 +- 1.32e-05
7.486 ; 0.01445 +- 1.293e-05
8.137 ; 0.01378 +- 1.262e-05
8.789 ; 0.01318 +- 1.234e-05
9.44 ; 0.01262 +- 1.208e-05
10.09 ; 0.01212 +- 1.183e-05
10.74 ; 0.01164 +- 1.16e-05
11.39 ; 0.01117 +- 1.136e-05
12.04 ; 0.01077 +- 1.116e-05
12.69 ; 0.01041 +- 1.097e-05
13.35 ; 0.01004 +- 1.077e-05
14 ; 0.009691 +- 1.058e-05
14.65 ; 0.009387 +- 1.042e-05
15.3 ; 0.009083 +- 1.025e-05
15.95 ; 0.008808 +- 1.009e-05
16.6 ; 0.008564 +- 9.95e-06
17.25 ; 0.008309 +- 9.801e-06
17.9 ; 0.008093 +- 9.672e-06
18.55 ; 0.007854 +- 9.528e-06
19.2 ; 0.007653 +- 9.406e-06
19.86 ; 0.007475 +- 9.296e-06
20.51 ; 0.00727 +- 9.167e-06
21.16 ; 0.007092 +- 9.054e-06
21.81 ; 0.006935 +- 8.953e-06
22.46 ; 0.006778 +- 8.851e-06
23.11 ; 0.006608 +- 8.74e-06
23.76 ; 0.006471 +- 8.649e-06
24.41 ; 0.006343 +- 8.563e-06
25.06 ; 0.006221 +- 8.48e-06
25.71 ; 0.006073 +- 8.378e-06
26.37 ; 0.005963 +- 8.302e-06
27.02 ; 0.005869 +- 8.237e-06
27.67 ; 0.005741 +- 8.146e-06
28.32 ; 0.005633 +- 8.069e-06
28.97 ; 0.005535 +- 7.999e-06
29.62 ; 0.005435 +- 7.927e-06
30.27 ; 0.005333 +- 7.852e-06
30.92 ; 0.005247 +- 7.788e-06
31.57 ; 0.005158 +- 7.721e-06
32.22 ; 0.005091 +- 7.672e-06
32.88 ; 0.004992 +- 7.596e-06
33.53 ; 0.004921 +- 7.543e-06
34.18 ; 0.004855 +- 7.492e-06
34.83 ; 0.004779 +- 7.433e-06
35.48 ; 0.0047 +- 7.371e-06
36.13 ; 0.004624 +- 7.311e-06
36.78 ; 0.004575 +- 7.272e-06
37.43 ; 0.004509 +- 7.22e-06
38.08 ; 0.004453 +- 7.175e-06
38.73 ; 0.004411 +- 7.14e-06
39.39 ; 0.004334 +- 7.078e-06
40.04 ; 0.004277 +- 7.032e-06
40.69 ; 0.004226 +- 6.99e-06
41.34 ; 0.00419 +- 6.96e-06
41.99 ; 0.004127 +- 6.907e-06
42.64 ; 0.00409 +- 6.876e-06
43.29 ; 0.004029 +- 6.825e-06
43.94 ; 0.00399 +- 6.792e-06
44.59 ; 0.003942 +- 6.75e-06
45.24 ; 0.00389 +- 6.706e-06
45.9 ; 0.003848 +- 6.669e-06
46.55 ; 0.003814 +- 6.64e-06
47.2 ; 0.003764 +- 6.596e-06
47.85 ; 0.003733 +- 6.569e-06
48.5 ; 0.003691 +- 6.532e-06
49.15 ; 0.003651 +- 6.496e-06
49.8 ; 0.00362 +- 6.469e-06
50.45 ; 0.003593 +- 6.444e-06
51.1 ; 0.003545 +- 6.401e-06
51.75 ; 0.003526 +- 6.384e-06
52.41 ; 0.003473 +- 6.337e-06
53.06 ; 0.003452 +- 6.317e-06
53.71 ; 0.003415 +- 6.283e-06
54.36 ; 0.003394 +- 6.264e-06
55.01 ; 0.003349 +- 6.222e-06
55.66 ; 0.003326 +- 6.201e-06
56.31 ; 0.003294 +- 6.171e-06
56.96 ; 0.00326 +- 6.139e-06
57.61 ; 0.003234 +- 6.115e-06
58.26 ; 0.003214 +- 6.096e-06
58.92 ; 0.003191 +- 6.073e-06
59.57 ; 0.00316 +- 6.044e-06
60.22 ; 0.003129 +- 6.015e-06
60.87 ; 0.003108 +- 5.994e-06
61.52 ; 0.003071 +- 5.958e-06
62.17 ; 0.003055 +- 5.943e-06
62.82 ; 0.00303 +- 5.918e-06
63.47 ; 0.003017 +- 5.905e-06
64.12 ; 0.00298 +- 5.87e-06
64.77 ; 0.002973 +- 5.862e-06
65.43 ; 0.002936 +- 5.825e-06
66.08 ; 0.002916 +- 5.806e-06
66.73 ; 0.002901 +- 5.791e-06
67.38 ; 0.002888 +- 5.777e-06
68.03 ; 0.002856 +- 5.746e-06
68.68 ; 0.002839 +- 5.729e-06
69.33 ; 0.002819 +- 5.709e-06
69.98 ; 0.002805 +- 5.694e-06
70.63 ; 0.002778 +- 5.667e-06
71.28 ; 0.002754 +- 5.642e-06
71.94 ; 0.002749 +- 5.637e-06
72.59 ; 0.002721 +- 5.608e-06
73.24 ; 0.002704 +- 5.591e-06
73.89 ; 0.002684 +- 5.571e-06
74.54 ; 0.002673 +- 5.559e-06
75.19 ; 0.002651 +- 5.536e-06
75.84 ; 0.002639 +- 5.523e-06
76.49 ; 0.002622 +- 5.505e-06
77.14 ; 0.002601 +- 5.483e-06
77.79 ; 0.002595 +- 5.477e-06
78.45 ; 0.002573 +- 5.453e-06
79.1 ; 0.002567 +- 5.447e-06
79.75 ; 0.002544 +- 5.423e-06
80.4 ; 0.002524 +- 5.402e-06
81.05 ; 0.002504 +- 5.38e-06
81.7 ; 0.002497 +- 5.373e-06
82.35 ; 0.002478 +- 5.352e-06
83 ; 0.002463 +- 5.335e-06
83.65 ; 0.002458 +- 5.33e-06
*dataend:
