*author: ADLER
*reference: PRC 89,044905 (2014) : 2014
*reference: ARXIV:1312.6676 : 2013
*doi: 10.1103/PhysRevC.89.044905
*status: Encoded 21 APR 2014 by JTM
*title: Transverse-energy distributions at midrapidity in p+p, d+Au, and Au+Au collisions at sqrt{s_{NN}} = 62.4-200 GeV and implications for particle-production models
*inspireId: 1273625
*detector: PHENIX
*experiment: BNL-RHIC-PHENIX

*dataset:
*location: Figure 10
*dscomment: Corrected dE_T/deta distributions at sqrt{s_{NN}}=200 GeV for five sectors of PbSc in p+p collisions.
*yheader: DY/DE_T IN 1/GEV
*xheader: E_T IN GEV
*data: x : y
6.346 ; 0.01497 +- 1.298e-05
7.014 ; 0.01469 +- 1.286e-05
7.682 ; 0.01408 +- 1.26e-05
8.35 ; 0.01343 +- 1.23e-05
9.018 ; 0.01284 +- 1.203e-05
9.686 ; 0.0123 +- 1.177e-05
10.35 ; 0.01181 +- 1.153e-05
11.02 ; 0.01134 +- 1.13e-05
11.69 ; 0.01089 +- 1.107e-05
12.36 ; 0.01049 +- 1.087e-05
13.03 ; 0.01014 +- 1.069e-05
13.69 ; 0.00978 +- 1.05e-05
14.36 ; 0.009444 +- 1.031e-05
15.03 ; 0.009148 +- 1.015e-05
15.7 ; 0.008851 +- 9.986e-06
16.37 ; 0.008584 +- 9.834e-06
17.03 ; 0.008346 +- 9.697e-06
17.7 ; 0.008098 +- 9.551e-06
18.37 ; 0.007887 +- 9.426e-06
19.04 ; 0.007654 +- 9.286e-06
19.71 ; 0.007458 +- 9.166e-06
20.37 ; 0.007285 +- 9.059e-06
21.04 ; 0.007085 +- 8.934e-06
21.71 ; 0.006911 +- 8.824e-06
22.38 ; 0.006758 +- 8.726e-06
23.05 ; 0.006605 +- 8.626e-06
23.71 ; 0.00644 +- 8.517e-06
24.38 ; 0.006306 +- 8.428e-06
25.05 ; 0.006182 +- 8.345e-06
25.72 ; 0.006062 +- 8.264e-06
26.39 ; 0.005918 +- 8.165e-06
27.05 ; 0.005811 +- 8.091e-06
27.72 ; 0.00572 +- 8.027e-06
28.39 ; 0.005595 +- 7.939e-06
29.06 ; 0.00549 +- 7.864e-06
29.73 ; 0.005394 +- 7.796e-06
30.39 ; 0.005297 +- 7.725e-06
31.06 ; 0.005198 +- 7.652e-06
31.73 ; 0.005113 +- 7.59e-06
32.4 ; 0.005026 +- 7.525e-06
33.07 ; 0.004962 +- 7.476e-06
33.73 ; 0.004865 +- 7.403e-06
34.4 ; 0.004796 +- 7.351e-06
35.07 ; 0.004732 +- 7.301e-06
35.74 ; 0.004658 +- 7.244e-06
36.41 ; 0.004581 +- 7.184e-06
37.07 ; 0.004506 +- 7.125e-06
37.74 ; 0.004458 +- 7.087e-06
38.41 ; 0.004395 +- 7.036e-06
39.08 ; 0.00434 +- 6.992e-06
39.75 ; 0.004298 +- 6.959e-06
40.41 ; 0.004224 +- 6.898e-06
41.08 ; 0.004169 +- 6.853e-06
41.75 ; 0.004119 +- 6.812e-06
42.42 ; 0.004084 +- 6.783e-06
43.09 ; 0.004022 +- 6.731e-06
43.75 ; 0.003986 +- 6.701e-06
44.42 ; 0.003927 +- 6.651e-06
45.09 ; 0.003889 +- 6.619e-06
45.76 ; 0.003841 +- 6.578e-06
46.43 ; 0.003791 +- 6.535e-06
47.09 ; 0.00375 +- 6.5e-06
47.76 ; 0.003717 +- 6.471e-06
48.43 ; 0.003668 +- 6.428e-06
49.1 ; 0.003638 +- 6.402e-06
49.77 ; 0.003597 +- 6.366e-06
50.43 ; 0.003558 +- 6.331e-06
51.1 ; 0.003528 +- 6.305e-06
51.77 ; 0.003501 +- 6.28e-06
52.44 ; 0.003454 +- 6.238e-06
53.11 ; 0.003436 +- 6.222e-06
53.77 ; 0.003385 +- 6.175e-06
54.44 ; 0.003364 +- 6.156e-06
55.11 ; 0.003328 +- 6.123e-06
55.78 ; 0.003308 +- 6.104e-06
56.45 ; 0.003264 +- 6.064e-06
57.11 ; 0.003241 +- 6.043e-06
57.78 ; 0.003211 +- 6.014e-06
58.45 ; 0.003177 +- 5.983e-06
59.12 ; 0.003152 +- 5.959e-06
59.79 ; 0.003133 +- 5.941e-06
60.45 ; 0.00311 +- 5.919e-06
61.12 ; 0.00308 +- 5.89e-06
61.79 ; 0.00305 +- 5.862e-06
62.46 ; 0.003029 +- 5.842e-06
63.13 ; 0.002993 +- 5.806e-06
63.79 ; 0.002978 +- 5.792e-06
64.46 ; 0.002953 +- 5.767e-06
65.13 ; 0.00294 +- 5.755e-06
65.8 ; 0.002905 +- 5.72e-06
66.47 ; 0.002897 +- 5.713e-06
67.13 ; 0.002861 +- 5.677e-06
67.8 ; 0.002842 +- 5.658e-06
68.47 ; 0.002828 +- 5.644e-06
69.14 ; 0.002814 +- 5.63e-06
69.81 ; 0.002783 +- 5.6e-06
70.47 ; 0.002767 +- 5.583e-06
71.14 ; 0.002747 +- 5.563e-06
71.81 ; 0.002733 +- 5.549e-06
72.48 ; 0.002708 +- 5.523e-06
73.15 ; 0.002684 +- 5.499e-06
73.81 ; 0.002679 +- 5.494e-06
74.48 ; 0.002651 +- 5.465e-06
75.15 ; 0.002635 +- 5.449e-06
75.82 ; 0.002616 +- 5.429e-06
76.49 ; 0.002605 +- 5.418e-06
77.15 ; 0.002584 +- 5.395e-06
77.82 ; 0.002572 +- 5.382e-06
78.49 ; 0.002555 +- 5.365e-06
79.16 ; 0.002534 +- 5.343e-06
79.83 ; 0.002529 +- 5.338e-06
80.49 ; 0.002507 +- 5.315e-06
81.16 ; 0.002502 +- 5.309e-06
81.83 ; 0.00248 +- 5.285e-06
82.5 ; 0.00246 +- 5.264e-06
83.17 ; 0.00244 +- 5.243e-06
83.83 ; 0.002434 +- 5.236e-06
84.5 ; 0.002415 +- 5.216e-06
85.17 ; 0.0024 +- 5.2e-06
85.84 ; 0.002395 +- 5.194e-06
*dataend:
