proton & antiproton correlations
trigger baryon, associated baryon
0-5%
 B = 0.609843
dphi	    yield     stat. err.
0.0785398, 0.638215, 0.00998325
0.235619, 0.62033, 0.0100153
0.392699, 0.631847, 0.0104028
0.549779, 0.616994, 0.0104287
0.706858, 0.617089, 0.010701
0.863938, 0.617533, 0.0118163
1.02102, 0.613164, 0.0146262
1.1781, 0.585652, 0.0203967
2.12058, 0.609202, 0.0191502
2.27765, 0.610562, 0.0121701
2.43473, 0.605136, 0.00932806
2.59181, 0.611531, 0.00795172
2.74889, 0.626423, 0.00762624
2.90597, 0.620126, 0.00783352
3.06305, 0.60825, 0.00798243

5-10%
 B = 0.501804
dphi	    yield     stat. err.
0.0785398, 0.543887, 0.00936382
0.235619, 0.528867, 0.00937755
0.392699, 0.520073, 0.00954712
0.549779, 0.52056, 0.00969281
0.706858, 0.50183, 0.00976093
0.863938, 0.494633, 0.010688
1.02102, 0.500328, 0.0132917
1.1781, 0.488348, 0.0187232
2.12058, 0.511789, 0.0177994
2.27765, 0.507342, 0.01121
2.43473, 0.49948, 0.0085661
2.59181, 0.502005, 0.00730044
2.74889, 0.498171, 0.00689647
2.90597, 0.521529, 0.00728913
3.06305, 0.513001, 0.00745526

10-20%
 B = 0.38023
dphi	    yield     stat. err.
0.0785398, 0.421074, 0.006295
0.235619, 0.419714, 0.0063692
0.392699, 0.398908, 0.0063629
0.549779, 0.384338, 0.00632629
0.706858, 0.39582, 0.00658043
0.863938, 0.365729, 0.00696823
1.02102, 0.367615, 0.00861692
1.1781, 0.396351, 0.0127431
2.12058, 0.39576, 0.0118589
2.27765, 0.39721, 0.00754102
2.43473, 0.394497, 0.00578724
2.59181, 0.384418, 0.00485173
2.74889, 0.399294, 0.00469353
2.90597, 0.400912, 0.00486765
3.06305, 0.401743, 0.00503092

20-40%
 B = 0.210907
dphi	    yield     stat. err.
0.0785398, 0.239664, 0.004259
0.235619, 0.246134, 0.00435322
0.392699, 0.23028, 0.00430231
0.549779, 0.226214, 0.00431254
0.706858, 0.217522, 0.00432673
0.863938, 0.209906, 0.00467073
1.02102, 0.21031, 0.0057583
1.1781, 0.195545, 0.00786607
2.12058, 0.212985, 0.00770237
2.27765, 0.220377, 0.00496326
2.43473, 0.228013, 0.00390026
2.59181, 0.226905, 0.00330892
2.74889, 0.231824, 0.00317779
2.90597, 0.235531, 0.00331801
3.06305, 0.231128, 0.00339862

40-60%
 B = 0.0710696
dphi	    yield     stat. err.
0.0785398, 0.100483, 0.00449298
0.235619, 0.0908604, 0.00428712
0.392699, 0.0847573, 0.00420339
0.549779, 0.0798084, 0.00411802
0.706858, 0.0762319, 0.00410061
0.863938, 0.0806101, 0.00461849
1.02102, 0.0766749, 0.00552387
1.1781, 0.071594, 0.00752637
2.12058, 0.0658563, 0.00685556
2.27765, 0.0810854, 0.00483408
2.43473, 0.0822997, 0.00375158
2.59181, 0.0776096, 0.00309887
2.74889, 0.084806, 0.00308194
2.90597, 0.08033, 0.00311284
3.06305, 0.0853738, 0.00332332

60-90%
 B = 0.0154037
dphi	    yield     stat. err.
0.0785398, 0.0248311, 0.00468535
0.235619, 0.0264735, 0.00447093
0.392699, 0.0230964, 0.0042732
0.549779, 0.0160329, 0.00404164
0.706858, 0.0179688, 0.00378986
0.863938, 0.0129783, 0.00363032
1.02102, 0.0144715, 0.00461213
1.1781, 0.0108528, 0.006045
2.12058, 0.030957, 0.00902507
2.27765, 0.0174771, 0.00426083
2.43473, 0.0181013, 0.00359031
2.59181, 0.016726, 0.00284957
2.74889, 0.0211215, 0.00296361
2.90597, 0.0225149, 0.00320703
3.06305, 0.0141394, 0.00259534


trigger proton, associated proton 

0-5%
 B = 0.34927
dphi	    yield     stat. err.
0.0785398, 0.364782, 0.00935558
0.235619, 0.360133, 0.0103154
0.392699, 0.361144, 0.00925627
0.549779, 0.357786, 0.0103416
0.706858, 0.337143, 0.0100327
0.863938, 0.359103, 0.010691
1.02102, 0.35901, 0.016243
1.1781, 0.288978, 0.0216319
2.12058, 0.30089, 0.0215324
2.27765, 0.337542, 0.0109489
2.43473, 0.341217, 0.00895953
2.59181, 0.354228, 0.00765654
2.74889, 0.367267, 0.00683469
2.90597, 0.361071, 0.00783399
3.06305, 0.340192, 0.00763928


5-10%
 B = 0.290847
dphi	    yield     stat. err.
0.0785398, 0.319878, 0.00895183
0.235619, 0.304141, 0.00967018
0.392699, 0.284023, 0.00834216
0.549779, 0.294462, 0.0095551
0.706858, 0.29056, 0.00949266
0.863938, 0.278164, 0.00956266
1.02102, 0.286895, 0.0146893
1.1781, 0.272656, 0.0212688
2.12058, 0.290805, 0.021669
2.27765, 0.300619, 0.0105241
2.43473, 0.287643, 0.00834144
2.59181, 0.286148, 0.0070027
2.74889, 0.294956, 0.00625046
2.90597, 0.310084, 0.00740325
3.06305, 0.30514, 0.00740013


10-20%
 B = 0.218358
dphi	    yield     stat. err.
0.0785398, 0.24023, 0.0059229
0.235619, 0.225387, 0.00634434
0.392699, 0.225058, 0.00564499
0.549779, 0.217731, 0.00622469
0.706858, 0.221029, 0.00627233
0.863938, 0.20518, 0.00620588
1.02102, 0.200262, 0.00924202
1.1781, 0.222902, 0.0145047
2.12058, 0.234341, 0.0148034
2.27765, 0.224737, 0.00691521
2.43473, 0.229378, 0.00564462
2.59181, 0.223097, 0.00468646
2.74889, 0.234752, 0.0042314
2.90597, 0.225774, 0.00479843
3.06305, 0.233785, 0.00492757

20-40%
 B = 0.123142
dphi	    yield     stat. err.
0.0785398, 0.132688, 0.00397185
0.235619, 0.134041, 0.00437219
0.392699, 0.132337, 0.00386654
0.549779, 0.124699, 0.00421432
0.706858, 0.128048, 0.00426416
0.863938, 0.120001, 0.00423048
1.02102, 0.126053, 0.00652102
1.1781, 0.104163, 0.0087562
2.12058, 0.120764, 0.00938799
2.27765, 0.131562, 0.00471506
2.43473, 0.130678, 0.00379495
2.59181, 0.131715, 0.00321273
2.74889, 0.135217, 0.00287288
2.90597, 0.135671, 0.00333007
3.06305, 0.13678, 0.00338776

40-60%
 B = 0.0412965
dphi	    yield     stat. err.
0.0785398, 0.0471649, 0.00385339
0.235619, 0.0478757, 0.00422243
0.392699, 0.044681, 0.00361378
0.549779, 0.0455905, 0.00409627
0.706858, 0.0410162, 0.00385991
0.863938, 0.0470559, 0.0042272
1.02102, 0.0439522, 0.00609834
1.1781, 0.0475271, 0.00934949
2.12058, 0.0418328, 0.00896247
2.27765, 0.0445632, 0.00437382
2.43473, 0.0507199, 0.003782
2.59181, 0.0472452, 0.00308969
2.74889, 0.0477844, 0.00273712
2.90597, 0.0488876, 0.00321104
3.06305, 0.0463505, 0.00316942

60-90%
 B = 0.00858869
dphi	    yield     stat. err.
0.0785398, 0.00882201, 0.00312646
0.235619, 0.0101201, 0.00358962
0.392699, 0.0134258, 0.00373672
0.549779, 0.0046198, 0.00235613
0.706858, 0.0142302, 0.00430663
0.863938, 0.00383033, 0.00221371
1.02102, 0.00574823, 0.00407112
1.1781, 0.0106108, 0.00783153
2.12058, 0.00626823, 0.00629773
2.27765, 0.00905128, 0.00370192
2.43473, 0.0161304, 0.0040794
2.59181, 0.00952859, 0.00255348
2.74889, 0.0105237, 0.00241719
2.90597, 0.0150145, 0.00336816
3.06305, 0.00680275, 0.00226987


trigger proton, associated anti-proton

0-5%	
 B = 0.260659
dphi	    yield     stat. err.
0.0785398, 0.278977, 0.00986153
0.235619, 0.265782, 0.00906727
0.392699, 0.277039, 0.0114117
0.549779, 0.250503, 0.00928979
0.706858, 0.264639, 0.0097387
0.863938, 0.264981, 0.0110906
1.02102, 0.262447, 0.0106496
1.1781, 0.277929, 0.0147955
2.12058, 0.25062, 0.0159167
2.27765, 0.274573, 0.0129114
2.43473, 0.265735, 0.00844816
2.59181, 0.256203, 0.0071725
2.74889, 0.269873, 0.00781012
2.90597, 0.259142, 0.00685998
3.06305, 0.260217, 0.0070652

5-10%
 B = 0.210839
dphi	    yield     stat. err.
0.0785398, 0.232987, 0.00909273
0.235619, 0.224515, 0.00839404
0.392699, 0.236047, 0.0106017
0.549779, 0.22086, 0.00875333
0.706858, 0.221095, 0.0089025
0.863938, 0.226896, 0.0102675
1.02102, 0.219141, 0.00970404
1.1781, 0.195171, 0.0123469
2.12058, 0.219978, 0.0149401
2.27765, 0.202927, 0.0110968
2.43473, 0.206908, 0.00746921
2.59181, 0.21718, 0.00662218
2.74889, 0.210045, 0.00691278
2.90597, 0.215528, 0.00629513
3.06305, 0.20937, 0.00637487

10-20%
 B = 0.16169
dphi	    yield     stat. err.
0.0785398, 0.187201, 0.00627373
0.235619, 0.186035, 0.00587929
0.392699, 0.180593, 0.00713487
0.549779, 0.160371, 0.00572536
0.706858, 0.164115, 0.00590077
0.863938, 0.163091, 0.00666742
1.02102, 0.158721, 0.00631459
1.1781, 0.171203, 0.00882741
2.12058, 0.161307, 0.00984607
2.27765, 0.172327, 0.00784128
2.43473, 0.171709, 0.0052303
2.59181, 0.164048, 0.00440472
2.74889, 0.174331, 0.00481746
2.90597, 0.16737, 0.00427151
3.06305, 0.168285, 0.00439572

20-40%
 B = 0.0879552
dphi	    yield     stat. err.
0.0785398, 0.107019, 0.00419326
0.235619, 0.108502, 0.00397489
0.392699, 0.0995334, 0.00467295
0.549779, 0.0981819, 0.00392532
0.706858, 0.0936126, 0.00388416
0.863938, 0.0858873, 0.00421381
1.02102, 0.0856561, 0.00402925
1.1781, 0.0794735, 0.00518142
2.12058, 0.0971974, 0.0067101
2.27765, 0.0930555, 0.00502769
2.43473, 0.0969856, 0.00343849
2.59181, 0.0932996, 0.00290032
2.74889, 0.100794, 0.0032043
2.90597, 0.097361, 0.00285209
3.06305, 0.0940687, 0.00287594

40-60%
 B = 0.0295895
dphi	    yield     stat. err.
0.0785398, 0.0486295, 0.00459974
0.235619, 0.0398276, 0.0038915
0.392699, 0.0445734, 0.00505166
0.549779, 0.0333881, 0.00366658
0.706858, 0.0331582, 0.00368713
0.863938, 0.0361808, 0.00432985
1.02102, 0.0334696, 0.00397781
1.1781, 0.0269539, 0.00478209
2.12058, 0.0294382, 0.00590096
2.27765, 0.040605, 0.00533981
2.43473, 0.0281481, 0.00295238
2.59181, 0.0303911, 0.00263627
2.74889, 0.0338077, 0.00295561
2.90597, 0.0346106, 0.00271341
3.06305, 0.0374975, 0.00290604


60-90%
 B = 0.00605701
dphi	    yield     stat. err.
0.0785398, 0.0160396, 0.00512331
0.235619, 0.0122373, 0.00409127
0.392699, 0.0078166, 0.00393588
0.549779, 0.00999048, 0.00381935
0.706858, 0.00973453, 0.00369773
0.863938, 0.00353719, 0.00250552
1.02102, 0.00608089, 0.00305313
1.1781, 0.00257482, 0.00257665
2.12058, 0.0111111, 0.00643663
2.27765, 0.00756428, 0.00438291
2.43473, 0.00650942, 0.00266241
2.59181, 0.00459638, 0.00188008
2.74889, 0.00783414, 0.00265653
2.90597, 0.00600136, 0.00203709
3.06305, 0.0100859, 0.00290059


trigger anti-proton, associated proton

0-5%
 B = 0.349247
dphi	    yield     stat. err.
0.0785398, 0.373401, 0.0119693
0.235619, 0.370415, 0.0106187
0.392699, 0.373455, 0.0127454
0.549779, 0.376741, 0.0119429
0.706858, 0.370964, 0.0126344
0.863938, 0.361427, 0.0166402
1.02102, 0.306774, 0.0165978
1.1781, 0.268866, 0.0220045
2.12058, 0.382459, 0.0177923
2.27765, 0.35666, 0.0137677
2.43473, 0.337612, 0.0106666
2.59181, 0.34566, 0.00931752
2.74889, 0.347545, 0.00937918
2.90597, 0.353558, 0.00865054
3.06305, 0.351642, 0.00936218

5-10%
 B = 0.290919
dphi	    yield     stat. err.
0.0785398, 0.310175, 0.0111507
0.235619, 0.312646, 0.00993405
0.392699, 0.316653, 0.0119656
0.549779, 0.309774, 0.0110151
0.706858, 0.287972, 0.0113387
0.863938, 0.292801, 0.0152482
1.02102, 0.279781, 0.0160862
1.1781, 0.27349, 0.0226126
2.12058, 0.287956, 0.0157152
2.27765, 0.294502, 0.0127313
2.43473, 0.29585, 0.0101507
2.59181, 0.295524, 0.0087956
2.74889, 0.289932, 0.00873074
2.90597, 0.294851, 0.00807298
3.06305, 0.291696, 0.0087231

10-20%
 B = 0.218333
dphi	    yield     stat. err.
0.0785398, 0.248677, 0.00756746
0.235619, 0.25582, 0.00679132
0.392699, 0.239681, 0.007843
0.549779, 0.232877, 0.00719813
0.706858, 0.237444, 0.00773354
0.863938, 0.197543, 0.00940977
1.02102, 0.212011, 0.0105166
1.1781, 0.218063, 0.015119
2.12058, 0.22609, 0.0104435
2.27765, 0.228748, 0.00844595
2.43473, 0.227395, 0.00671153
2.59181, 0.221736, 0.00573568
2.74889, 0.223744, 0.0057813
2.90597, 0.226935, 0.00534822
3.06305, 0.227606, 0.00582924


20-40%
 B = 0.122925
dphi	    yield     stat. err.
0.0785398, 0.147192, 0.00524828
0.235619, 0.152729, 0.0047276
0.392699, 0.13525, 0.0053015
0.549779, 0.134596, 0.00491704
0.706858, 0.130415, 0.00514977
0.863938, 0.130271, 0.00688685
1.02102, 0.110831, 0.00687747
1.1781, 0.123849, 0.0103444
2.12058, 0.127452, 0.00705955
2.27765, 0.126374, 0.00560518
2.43473, 0.13473, 0.00464333
2.59181, 0.131089, 0.00397158
2.74889, 0.130816, 0.00397822
2.90597, 0.136955, 0.00374852
3.06305, 0.133629, 0.00402723

40-60%
 B = 0.0413912
dphi	    yield     stat. err.
0.0785398, 0.0656645, 0.00565789
0.235619, 0.0595484, 0.00473978
0.392699, 0.0502593, 0.00518709
0.549779, 0.0519063, 0.00490628
0.706858, 0.0477811, 0.00498283
0.863938, 0.0424082, 0.00632631
1.02102, 0.0506312, 0.00764159
1.1781, 0.0510681, 0.0108996
2.12058, 0.0338022, 0.00573868
2.27765, 0.0502923, 0.0056684
2.43473, 0.0518595, 0.00464195
2.59181, 0.0441464, 0.00371909
2.74889, 0.0556147, 0.00416932
2.90597, 0.0426747, 0.00337501
3.06305, 0.0476336, 0.00389111


60-90%
 B = 0.00864506
dphi	    yield     stat. err.
0.0785398, 0.0179044, 0.00572233
0.235619, 0.0207857, 0.00523851
0.392699, 0.0134132, 0.00518366
0.549779, 0.0156303, 0.00550775
0.706858, 0.00850144, 0.00382066
0.863938, 0.00969033, 0.00560993
1.02102, 0.0150011, 0.00753285
1.1781, 0, 0
2.12058, 0.028242, 0.0100294
2.27765, 0.0107022, 0.00482038
2.43473, 0.00559313, 0.00280001
2.59181, 0.00728811, 0.00276435
2.74889, 0.0138487, 0.00385675
2.90597, 0.0148293, 0.00371871
3.06305, 0.00769836, 0.00291922


trigger anti-protons, associated anti-protons
0-5%
 B = 0.260634
dphi	    yield     stat. err.
0.0785398, 0.273598, 0.010359
0.235619, 0.242425, 0.0115255
0.392699, 0.259724, 0.0104102
0.549779, 0.24667, 0.0111954
0.706858, 0.268417, 0.012103
0.863938, 0.254067, 0.0114651
1.02102, 0.287967, 0.0176165
1.1781, 0.310379, 0.027637
2.12058, 0.235919, 0.0261515
2.27765, 0.259916, 0.0133986
2.43473, 0.262053, 0.0105112
2.59181, 0.268517, 0.00874662
2.74889, 0.264875, 0.00798578
2.90597, 0.258778, 0.0088744
3.06305, 0.266225, 0.00894227

5-10%
 B = 0.210886
dphi	    yield     stat. err.
0.0785398, 0.224051, 0.0094801
0.235619, 0.222934, 0.0111362
0.392699, 0.226177, 0.00974409
0.549779, 0.214942, 0.0104979
0.706858, 0.206867, 0.0106324
0.863938, 0.194552, 0.0100253
1.02102, 0.19292, 0.014378
1.1781, 0.242637, 0.0242061
2.12058, 0.215782, 0.0253225
2.27765, 0.212223, 0.0121176
2.43473, 0.207904, 0.00939509
2.59181, 0.209635, 0.00778197
2.74889, 0.201306, 0.00699812
2.90597, 0.216633, 0.00816099
3.06305, 0.214411, 0.00807917


10-20%
 B = 0.161673
dphi	    yield     stat. err.
0.0785398, 0.17028, 0.00630857
0.235619, 0.166689, 0.0073485
0.392699, 0.162501, 0.00628371
0.549779, 0.154166, 0.00676596
0.706858, 0.17638, 0.00748388
0.863938, 0.162186, 0.00695722
1.02102, 0.15828, 0.00983778
1.1781, 0.164522, 0.0151234
2.12058, 0.149376, 0.0160589
2.27765, 0.168988, 0.00824958
2.43473, 0.151172, 0.00608857
2.59181, 0.159907, 0.00516679
2.74889, 0.161734, 0.00478809
2.90597, 0.181721, 0.00569919
3.06305, 0.168356, 0.00548949

20-40%
 B = 0.0878014
dphi	    yield     stat. err.
0.0785398, 0.0943802, 0.00419314
0.235619, 0.0959005, 0.00496159
0.392699, 0.095028, 0.00424653
0.549779, 0.0954587, 0.00468974
0.706858, 0.0820699, 0.00449255
0.863938, 0.0859886, 0.00443645
1.02102, 0.0971593, 0.00670287
1.1781, 0.0828243, 0.0094149
2.12058, 0.0711512, 0.0097128
2.27765, 0.0861052, 0.00517534
2.43473, 0.093262, 0.0042093
2.59181, 0.0960791, 0.00352749
2.74889, 0.0972056, 0.00327018
2.90597, 0.101031, 0.00374506
3.06305, 0.0919512, 0.0035807

40-60%
 B = 0.0296575
dphi	    yield     stat. err.
0.0785398, 0.0468, 0.00480532
0.235619, 0.0335474, 0.00474799
0.392699, 0.0341712, 0.00408592
0.549779, 0.027931, 0.00407645
0.706858, 0.0328882, 0.00456298
0.863938, 0.0318635, 0.00429857
1.02102, 0.0276529, 0.00565742
1.1781, 0.0262091, 0.00832522
2.12058, 0.026479, 0.00938187
2.27765, 0.0278706, 0.00471279
2.43473, 0.0306368, 0.00383324
2.59181, 0.0345152, 0.00338862
2.74889, 0.0333003, 0.00306731
2.90597, 0.0327412, 0.00343688
3.06305, 0.0391655, 0.00375469

60-90%
 B = 0.00609181
dphi	    yield     stat. err.
0.0785398, 0.00743028, 0.00372752
0.235619, 0.00422694, 0.00300724
0.392699, 0.00846931, 0.00379542
0.549779, 0.00186945, 0.00187064
0.706858, 0, 0
0.863938, 0.00914175, 0.00409196
1.02102, 0, 0
1.1781, 0.00896732, 0.00901075
2.12058, 0, 0
2.27765, 0.00769794, 0.00446337
2.43473, 0.00620857, 0.00311457
2.59181, 0.00708729, 0.00269545
2.74889, 0.0081092, 0.00272436
2.90597, 0.00603722, 0.00270679
3.06305, 0.00233831, 0.00165495
