Au + Au 0 - 20 %

note: correlation function is symmetric with respect to pTa and pTb

note: #xi error shown is statistical only!



2-3 #otimes 0.4-1 GeV/c
v_{2}^{t}v_{2}^{p}=0.1052 x 0.0375=0.003940
#xi=1.004435#pm0.000570

Dphi  CF  CFerr
-1.473  0.998896  0.000124
-1.276  0.998501  0.000121
-1.080  0.999998  0.000114
-0.884  1.003184  0.000103
-0.687  1.008124  0.000091
-0.491  1.013935  0.000083
-0.295  1.019574  0.000081
-0.098  1.023919  0.000080
0.098  1.023997  0.000079
0.295  1.019848  0.000079
0.491  1.014228  0.000082
0.687  1.008054  0.000089
0.884  1.003132  0.000100
1.080  0.999721  0.000111
1.276  0.998681  0.000117
1.473  0.999159  0.000123
1.669  1.000686  0.000128
1.865  1.003129  0.000125
2.062  1.006385  0.000113
2.258  1.009560  0.000102
2.454  1.012480  0.000095
2.651  1.014886  0.000091
2.847  1.016557  0.000086
3.043  1.017614  0.000083
3.240  1.017433  0.000083
3.436  1.016652  0.000085
3.632  1.015092  0.000089
3.829  1.012560  0.000093
4.025  1.009556  0.000099
4.222  1.006206  0.000109
4.418  1.003435  0.000121
4.614  1.000721  0.000126


2-3 #otimes 1-2 GeV/c
v_{2}^{t}v_{2}^{p}=0.1052 x 0.0714=0.007507
#xi=1.002628#pm0.000996

Dphi  CF  CFerr
-1.473  0.993573  0.000285
-1.276  0.992684  0.000263
-1.080  0.994392  0.000225
-0.884  1.000407  0.000197
-0.687  1.011784  0.000177
-0.491  1.025443  0.000160
-0.295  1.034693  0.000148
-0.098  1.043809  0.000141
0.098  1.043844  0.000141
0.295  1.035027  0.000146
0.491  1.025502  0.000157
0.687  1.011619  0.000170
0.884  1.000474  0.000189
1.080  0.993818  0.000216
1.276  0.992551  0.000256
1.473  0.994175  0.000287
1.669  0.998602  0.000285
1.865  1.003340  0.000256
2.062  1.008274  0.000221
2.258  1.012834  0.000196
2.454  1.017454  0.000177
2.651  1.021105  0.000165
2.847  1.023962  0.000158
3.043  1.025224  0.000155
3.240  1.025182  0.000155
3.436  1.023598  0.000156
3.632  1.021093  0.000163
3.829  1.017090  0.000173
4.025  1.012814  0.000192
4.222  1.008502  0.000215
4.418  1.003432  0.000248
4.614  0.998028  0.000276


2-3 #otimes 2-3 GeV/c
v_{2}^{t}v_{2}^{p}=0.1052 x 0.1052=0.011062
#xi=1.002676#pm0.001484

Dphi  CF  CFerr
-1.473  0.993058  0.001023
-1.276  0.988688  0.000899
-1.080  0.990527  0.000762
-0.884  0.998743  0.000668
-0.687  1.017946  0.000605
-0.491  1.043095  0.000551
-0.295  1.071120  0.000505
-0.098  1.085566  0.000479
0.098  1.085654  0.000479
0.295  1.071051  0.000502
0.491  1.043107  0.000538
0.687  1.018010  0.000578
0.884  0.999188  0.000633
1.080  0.990757  0.000727
1.276  0.988492  0.000880
1.473  0.994008  0.001031
1.669  0.997865  0.000994
1.865  1.005838  0.000864
2.062  1.011137  0.000756
2.258  1.017115  0.000666
2.454  1.023136  0.000597
2.651  1.027579  0.000552
2.847  1.030285  0.000530
3.043  1.032016  0.000525
3.240  1.032186  0.000525
3.436  1.030273  0.000529
3.632  1.027444  0.000548
3.829  1.023641  0.000591
4.025  1.016896  0.000656
4.222  1.011315  0.000741
4.418  1.005640  0.000847
4.614  0.998228  0.000977


3-4 #otimes 0.4-1 GeV/c
v_{2}^{t}v_{2}^{p}=0.1127 x 0.0374=0.004218
#xi=1.003309#pm0.000557

Dphi  CF  CFerr
-1.473  0.997694  0.000402
-1.276  0.997699  0.000393
-1.080  0.998010  0.000373
-0.884  1.002420  0.000334
-0.687  1.006084  0.000294
-0.491  1.013435  0.000271
-0.295  1.020408  0.000262
-0.098  1.025664  0.000260
0.098  1.025411  0.000258
0.295  1.019947  0.000258
0.491  1.013582  0.000266
0.687  1.006413  0.000290
0.884  1.001461  0.000327
1.080  0.998384  0.000362
1.276  0.998122  0.000383
1.473  0.998574  0.000400
1.669  1.000596  0.000420
1.865  1.003428  0.000411
2.062  1.007146  0.000369
2.258  1.010102  0.000332
2.454  1.013431  0.000311
2.651  1.016337  0.000296
2.847  1.017345  0.000282
3.043  1.019121  0.000271
3.240  1.019312  0.000269
3.436  1.018009  0.000277
3.632  1.016142  0.000290
3.829  1.013388  0.000303
4.025  1.010587  0.000321
4.222  1.006397  0.000355
4.418  1.003213  0.000393
4.614  1.000340  0.000407


3-4 #otimes 1-2 GeV/c
v_{2}^{t}v_{2}^{p}=0.1127 x 0.0714=0.008046
#xi=1.002434#pm0.001071

Dphi  CF  CFerr
-1.473  0.995998  0.000930
-1.276  0.992153  0.000861
-1.080  0.992945  0.000725
-0.884  1.000444  0.000645
-0.687  1.011134  0.000572
-0.491  1.028383  0.000522
-0.295  1.041643  0.000481
-0.098  1.054766  0.000460
0.098  1.055118  0.000461
0.295  1.040836  0.000474
0.491  1.027749  0.000514
0.687  1.010981  0.000550
0.884  0.999005  0.000618
1.080  0.992037  0.000698
1.276  0.991306  0.000840
1.473  0.995674  0.000942
1.669  0.998403  0.000934
1.865  1.005369  0.000843
2.062  1.008649  0.000721
2.258  1.014376  0.000644
2.454  1.018287  0.000576
2.651  1.022146  0.000537
2.847  1.025357  0.000514
3.043  1.026876  0.000505
3.240  1.026848  0.000503
3.436  1.025605  0.000506
3.632  1.022592  0.000531
3.829  1.020450  0.000561
4.025  1.013824  0.000626
4.222  1.010200  0.000694
4.418  1.003712  0.000810
4.614  0.999427  0.000900


3-4 #otimes 2-3 GeV/c
v_{2}^{t}v_{2}^{p}=0.1127 x 0.1052=0.011858
#xi=1.003518#pm0.001599

Dphi  CF  CFerr
-1.473  0.991432  0.003348
-1.276  0.988844  0.002910
-1.080  0.989692  0.002474
-0.884  0.998042  0.002167
-0.687  1.020300  0.001968
-0.491  1.050633  0.001798
-0.295  1.094934  0.001660
-0.098  1.129663  0.001585
0.098  1.123606  0.001581
0.295  1.097061  0.001652
0.491  1.054015  0.001762
0.687  1.020180  0.001882
0.884  1.000892  0.002059
1.080  0.988157  0.002365
1.276  0.987969  0.002865
1.473  0.993151  0.003398
1.669  0.999218  0.003294
1.865  1.004405  0.002820
2.062  1.012481  0.002476
2.258  1.018813  0.002172
2.454  1.024307  0.001951
2.651  1.028599  0.001798
2.847  1.033591  0.001730
3.043  1.032970  0.001708
3.240  1.032042  0.001705
3.436  1.028132  0.001713
3.632  1.027301  0.001777
3.829  1.023497  0.001922
4.025  1.019356  0.002133
4.222  1.010497  0.002399
4.418  1.005889  0.002749
4.614  0.997309  0.003201


3-4 #otimes 3-4 GeV/c
v_{2}^{t}v_{2}^{p}=0.1127 x 0.1127=0.012707
#xi=1.002814#pm0.001719

Dphi  CF  CFerr
-1.473  1.000145  0.011841
-1.276  0.984541  0.009824
-1.080  0.982420  0.008351
-0.884  0.995022  0.007284
-0.687  1.028871  0.006802
-0.491  1.078648  0.006326
-0.295  1.159918  0.005988
-0.098  1.257559  0.005758
0.098  1.254638  0.005747
0.295  1.155807  0.005961
0.491  1.078309  0.006327
0.687  1.026411  0.006792
0.884  0.998559  0.007306
1.080  0.984969  0.008369
1.276  0.987658  0.009853
1.473  0.995829  0.011785
1.669  1.011109  0.011292
1.865  1.010968  0.009418
2.062  1.019745  0.008429
2.258  1.005444  0.007368
2.454  1.024693  0.006811
2.651  1.034774  0.006282
2.847  1.030971  0.006046
3.043  1.041406  0.005969
3.240  1.041073  0.005966
3.436  1.034333  0.006060
3.632  1.034441  0.006272
3.829  1.020975  0.006788
4.025  1.007885  0.007384
4.222  1.020643  0.008436
4.418  1.012655  0.009424
4.614  1.011904  0.011269


4-5 #otimes 0.4-1 GeV/c
v_{2}^{t}v_{2}^{p}=0.1010 x 0.0374=0.003778
#xi=1.002798#pm0.000343

Dphi  CF  CFerr
-1.473  0.999203  0.001085
-1.276  0.998585  0.001059
-1.080  0.999717  0.001003
-0.884  1.002349  0.000894
-0.687  1.006639  0.000791
-0.491  1.011739  0.000730
-0.295  1.018159  0.000711
-0.098  1.021124  0.000707
0.098  1.023461  0.000703
0.295  1.018919  0.000708
0.491  1.011943  0.000735
0.687  1.005319  0.000808
0.884  1.001218  0.000912
1.080  0.998477  0.001012
1.276  0.997787  0.001071
1.473  0.998021  0.001116
1.669  1.001067  0.001161
1.865  1.006037  0.001122
2.062  1.009042  0.001006
2.258  1.010118  0.000909
2.454  1.013909  0.000855
2.651  1.015668  0.000809
2.847  1.017960  0.000770
3.043  1.018309  0.000745
3.240  1.017301  0.000743
3.436  1.017777  0.000765
3.632  1.016768  0.000796
3.829  1.012194  0.000832
4.025  1.009434  0.000883
4.222  1.005400  0.000983
4.418  1.004179  0.001085
4.614  0.998470  0.001104


4-5 #otimes 1-2 GeV/c
v_{2}^{t}v_{2}^{p}=0.1010 x 0.0714=0.007206
#xi=1.001996#pm0.000367

Dphi  CF  CFerr
-1.473  0.989250  0.002509
-1.276  0.994835  0.002327
-1.080  0.994435  0.001931
-0.884  0.999942  0.001724
-0.687  1.009457  0.001523
-0.491  1.025815  0.001402
-0.295  1.037425  0.001293
-0.098  1.057838  0.001254
0.098  1.057389  0.001265
0.295  1.041063  0.001301
0.491  1.027651  0.001429
0.687  1.009169  0.001528
0.884  0.998168  0.001746
1.080  0.993987  0.001980
1.276  0.993356  0.002387
1.473  0.995999  0.002640
1.669  0.999584  0.002546
1.865  1.004883  0.002287
2.062  1.006841  0.001940
2.258  1.011596  0.001748
2.454  1.018733  0.001568
2.651  1.022913  0.001479
2.847  1.026388  0.001416
3.043  1.025740  0.001391
3.240  1.026074  0.001384
3.436  1.026295  0.001393
3.632  1.024359  0.001472
3.829  1.017528  0.001547
4.025  1.012373  0.001736
4.222  1.007966  0.001903
4.418  1.001175  0.002222
4.614  0.993998  0.002461


4-5 #otimes 2-3 GeV/c
v_{2}^{t}v_{2}^{p}=0.1010 x 0.1052=0.010619
#xi=1.007416#pm0.001459

Dphi  CF  CFerr
-1.473  0.992416  0.009160
-1.276  1.000005  0.007833
-1.080  0.980153  0.006570
-0.884  1.007596  0.005813
-0.687  1.029017  0.005275
-0.491  1.051645  0.004817
-0.295  1.104870  0.004505
-0.098  1.168527  0.004382
0.098  1.166904  0.004418
0.295  1.105218  0.004568
0.491  1.045943  0.004856
0.687  1.016819  0.005235
0.884  0.999733  0.005802
1.080  0.992716  0.006763
1.276  0.985206  0.008154
1.473  1.019861  0.009623
1.669  1.000489  0.008996
1.865  1.017984  0.007686
2.062  1.011510  0.006670
2.258  1.020217  0.005878
2.454  1.023678  0.005323
2.651  1.028804  0.004944
2.847  1.032149  0.004782
3.043  1.030034  0.004699
3.240  1.042075  0.004706
3.436  1.029093  0.004716
3.632  1.029790  0.004920
3.829  1.022172  0.005335
4.025  1.012985  0.005889
4.222  1.006820  0.006572
4.418  0.997140  0.007480
4.614  1.008424  0.008889


4-5 #otimes 3-4 GeV/c
v_{2}^{t}v_{2}^{p}=0.1010 x 0.1127=0.011380
#xi=0.993587#pm0.002621

Dphi  CF  CFerr
-1.473  0.970004  0.031891
-1.276  1.015665  0.026683
-1.080  0.968677  0.022205
-0.884  1.014670  0.019569
-0.687  1.032068  0.018178
-0.491  1.078905  0.016903
-0.295  1.209130  0.016541
-0.098  1.443552  0.016857
0.098  1.446849  0.017041
0.295  1.200551  0.016827
0.491  1.079706  0.017452
0.687  1.040425  0.019136
0.884  0.996240  0.020548
1.080  0.991148  0.023972
1.276  0.946461  0.027555
1.473  0.996244  0.032707
1.669  0.959350  0.029854
1.865  0.979431  0.025007
2.062  1.034397  0.022965
2.258  1.002694  0.019859
2.454  1.014051  0.018437
2.651  1.035994  0.017264
2.847  1.044321  0.016941
3.043  1.066635  0.016707
3.240  1.048183  0.016417
3.436  1.070589  0.016943
3.632  1.025449  0.017177
3.829  1.034427  0.019031
4.025  0.996111  0.020273
4.222  1.014153  0.023119
4.418  0.970725  0.025368
4.614  1.016694  0.031232


4-5 #otimes 4-5 GeV/c
v_{2}^{t}v_{2}^{p}=0.1010 x 0.1009=0.010185
#xi=0.999206#pm0.001415

Dphi  CF  CFerr
-1.473  1.006170  0.080463
-1.276  1.111497  0.070168
-1.080  0.955612  0.055018
-0.884  0.991971  0.048137
-0.687  1.036644  0.045386
-0.491  1.090896  0.042109
-0.295  1.303367  0.042714
-0.098  1.983778  0.049511
0.098  2.017007  0.050242
0.295  1.322594  0.044074
0.491  1.105764  0.043777
0.687  1.024378  0.047139
0.884  0.976916  0.050402
1.080  0.948040  0.057922
1.276  0.973309  0.068145
1.473  0.966566  0.079634
1.669  1.083377  0.079701
1.865  1.037971  0.064124
2.062  0.968313  0.055174
2.258  1.078120  0.051731
2.454  1.066046  0.047237
2.651  1.105690  0.044364
2.847  1.054191  0.042451
3.043  1.126961  0.042860
3.240  1.107959  0.041831
3.436  1.037893  0.041394
3.632  1.102798  0.043954
3.829  1.053612  0.047397
4.025  1.108709  0.053314
4.222  0.959896  0.055058
4.418  0.971382  0.061384
4.614  1.071775  0.079699


5-10 #otimes 0.4-1 GeV/c
v_{2}^{t}v_{2}^{p}=0.0933 x 0.0374=0.003490
#xi=1.003787#pm0.000204

Dphi  CF  CFerr
-1.473  1.003906  0.002737
-1.276  0.998602  0.002661
-1.080  1.004110  0.002525
-0.884  1.002806  0.002250
-0.687  1.006848  0.002004
-0.491  1.010447  0.001856
-0.295  1.017387  0.001814
-0.098  1.022580  0.001812
0.098  1.025454  0.001813
0.295  1.018907  0.001828
0.491  1.010815  0.001900
0.687  1.006242  0.002097
0.884  1.000122  0.002365
1.080  0.997536  0.002627
1.276  0.997468  0.002778
1.473  1.001233  0.002871
1.669  1.005528  0.002950
1.865  1.001618  0.002826
2.062  1.003595  0.002552
2.258  1.009799  0.002319
2.454  1.016719  0.002190
2.651  1.017264  0.002072
2.847  1.021128  0.001980
3.043  1.023077  0.001925
3.240  1.017372  0.001922
3.436  1.023805  0.001982
3.632  1.015675  0.002049
3.829  1.017016  0.002154
4.025  1.010775  0.002284
4.222  1.012539  0.002550
4.418  1.005876  0.002781
4.614  0.999690  0.002788


5-10 #otimes 1-2 GeV/c
v_{2}^{t}v_{2}^{p}=0.0933 x 0.0714=0.006656
#xi=1.003774#pm0.000993

Dphi  CF  CFerr
-1.473  0.999250  0.006278
-1.276  0.999195  0.005805
-1.080  0.999204  0.004796
-0.884  1.002413  0.004325
-0.687  1.012768  0.003839
-0.491  1.023446  0.003561
-0.295  1.041458  0.003306
-0.098  1.063608  0.003225
0.098  1.063038  0.003268
0.295  1.046130  0.003359
0.491  1.031172  0.003731
0.687  1.012930  0.003990
0.884  1.002864  0.004593
1.080  0.986743  0.005128
1.276  0.984987  0.006129
1.473  1.003075  0.006745
1.669  1.003868  0.006413
1.865  1.008317  0.005772
2.062  1.016229  0.004909
2.258  1.011803  0.004444
2.454  1.031337  0.004025
2.651  1.027448  0.003818
2.847  1.030270  0.003655
3.043  1.026548  0.003588
3.240  1.033178  0.003584
3.436  1.021539  0.003589
3.632  1.022402  0.003818
3.829  1.018318  0.003997
4.025  1.021164  0.004521
4.222  1.011209  0.004892
4.418  1.004405  0.005723
4.614  0.995579  0.006259


5-10 #otimes 2-3 GeV/c
v_{2}^{t}v_{2}^{p}=0.0933 x 0.1052=0.009810
#xi=1.004155#pm0.001262

Dphi  CF  CFerr
-1.473  1.008502  0.023107
-1.276  1.022998  0.019483
-1.080  0.984369  0.016356
-0.884  1.012267  0.014550
-0.687  0.990777  0.012969
-0.491  1.047574  0.012192
-0.295  1.115274  0.011560
-0.098  1.239544  0.011585
0.098  1.224180  0.011638
0.295  1.109647  0.011812
0.491  1.049336  0.012657
0.687  1.010601  0.013614
0.884  1.006279  0.015292
1.080  0.997772  0.017736
1.276  0.988933  0.020988
1.473  0.989062  0.023739
1.669  0.987663  0.022546
1.865  1.017424  0.019294
2.062  1.029041  0.016910
2.258  1.039061  0.014988
2.454  1.037073  0.013702
2.651  1.011924  0.012608
2.847  1.027039  0.012328
3.043  1.053651  0.012268
3.240  1.058671  0.012236
3.436  1.049402  0.012360
3.632  1.015455  0.012654
3.829  1.044474  0.014011
4.025  1.013519  0.015251
4.222  1.030714  0.017128
4.418  1.039721  0.019622
4.614  1.017995  0.022839


5-10 #otimes 3-4 GeV/c
v_{2}^{t}v_{2}^{p}=0.0933 x 0.1127=0.010514
#xi=0.952603#pm0.002196

Dphi  CF  CFerr
-1.473  0.937885  0.079201
-1.276  0.992439  0.064014
-1.080  1.101452  0.059173
-0.884  1.071341  0.050109
-0.687  0.936674  0.043529
-0.491  1.161753  0.044790
-0.295  1.275293  0.043747
-0.098  1.814133  0.048733
0.098  1.818499  0.049185
0.295  1.324765  0.045736
0.491  1.053192  0.044614
0.687  0.969381  0.049009
0.884  1.042860  0.055265
1.080  0.986235  0.063062
1.276  1.084138  0.075208
1.473  1.065761  0.085210
1.669  0.937468  0.074956
1.865  0.923379  0.061031
2.062  0.982960  0.056173
2.258  0.997822  0.049910
2.454  1.004424  0.047163
2.651  1.002822  0.043799
2.847  1.049934  0.043853
3.043  1.086858  0.043533
3.240  1.095612  0.043231
3.436  1.065962  0.043508
3.632  1.091472  0.046051
3.829  1.106502  0.051486
4.025  1.006044  0.052730
4.222  0.874684  0.054841
4.418  0.934899  0.063143
4.614  1.029632  0.080778


5-10 #otimes 4-5 GeV/c
v_{2}^{t}v_{2}^{p}=0.0933 x 0.1009=0.009410
#xi=0.920088#pm0.002253

Dphi  CF  CFerr
-1.473  0.714067  0.164921
-1.276  0.657027  0.130730
-1.080  0.667791  0.113137
-0.884  1.043481  0.125094
-0.687  1.146920  0.121292
-0.491  1.022104  0.103024
-0.295  1.384559  0.113635
-0.098  3.291597  0.167250
0.098  3.452503  0.172812
0.295  1.509891  0.124315
0.491  1.086695  0.113732
0.687  1.138434  0.131401
0.884  1.291094  0.151256
1.080  1.104890  0.168670
1.276  0.975405  0.173326
1.473  0.965558  0.201423
1.669  1.180053  0.224712
1.865  0.844423  0.149038
2.062  0.775301  0.124641
2.258  1.073778  0.128719
2.454  1.328086  0.139472
2.651  0.814436  0.096489
2.847  1.325357  0.123887
3.043  1.395861  0.123845
3.240  1.500334  0.128196
3.436  1.160151  0.112613
3.632  1.203748  0.120854
3.829  0.724000  0.101994
4.025  1.087234  0.134993
4.222  1.119172  0.153304
4.418  1.045394  0.163100
4.614  1.290238  0.221179


5-10 #otimes 5-10 GeV/c
v_{2}^{t}v_{2}^{p}=0.0933 x 0.0926=0.008633
#xi=0.796293#pm0.001954

Dphi  CF  CFerr
-1.473  0.341517  0.140472
-1.276  1.269819  0.234609
-1.080  0.861271  0.162971
-0.884  0.772101  0.134715
-0.687  0.989237  0.141506
-0.491  1.255427  0.146016
-0.295  1.267680  0.134353
-0.098  4.493081  0.244764
0.098  4.553644  0.244062
0.295  1.398354  0.144269
0.491  1.186361  0.139844
0.687  0.780630  0.127086
0.884  1.085955  0.162713
1.080  0.936694  0.177583
1.276  1.045354  0.205720
1.473  0.643848  0.196856
1.669  0.621322  0.189837
1.865  1.165329  0.214571
2.062  0.918242  0.168733
2.258  0.900638  0.147356
2.454  0.995324  0.145516
2.651  1.044510  0.139280
2.847  1.235581  0.147777
3.043  1.408293  0.155729
3.240  1.418541  0.156812
3.436  1.296346  0.149538
3.632  0.816452  0.118911
3.829  1.093419  0.157119
4.025  0.914123  0.148907
4.222  0.891718  0.163225
4.418  1.165181  0.207940
4.614  0.808178  0.205714
