p+p

note: correlation function is symmetric with respect to pTa and pTb

note: #xi error shown is statistical only!



2-3 #otimes 0.4-1 GeV/c
#xi=1.741851

Dphi  CF  CFerr
-1.473  1.764401  0.013069
-1.276  1.748667  0.012833
-1.080  1.777698  0.012693
-0.884  1.850995  0.011829
-0.687  1.996205  0.010720
-0.491  2.317520  0.010494
-0.295  2.560039  0.010808
-0.098  2.670569  0.011295
0.098  2.693305  0.011325
0.295  2.610456  0.010937
0.491  2.305559  0.010498
0.687  2.020633  0.010831
0.884  1.860670  0.011843
1.080  1.786053  0.012678
1.276  1.765455  0.012825
1.473  1.754957  0.012943
1.669  1.774733  0.013603
1.865  1.894264  0.014086
2.062  1.955309  0.013027
2.258  2.075345  0.012194
2.454  2.176965  0.011881
2.651  2.297954  0.011701
2.847  2.361800  0.011286
3.043  2.414484  0.011062
3.240  2.420405  0.011064
3.436  2.389728  0.011268
3.632  2.296174  0.011514
3.829  2.194643  0.011772
4.025  2.078193  0.012058
4.222  1.981405  0.012932
4.418  1.888556  0.013928
4.614  1.795899  0.013734


2-3 #otimes 1-2 GeV/c
#xi=2.224828

Dphi  CF  CFerr
-1.473  2.313834  0.040979
-1.276  2.211519  0.036800
-1.080  2.192719  0.032055
-0.884  2.357066  0.030102
-0.687  2.890926  0.030807
-0.491  3.805373  0.032306
-0.295  5.400046  0.035038
-0.098  6.220343  0.035240
0.098  6.215809  0.035349
0.295  5.349231  0.034621
0.491  3.784720  0.032351
0.687  2.877887  0.030821
0.884  2.443648  0.030882
1.080  2.227652  0.032235
1.276  2.191474  0.036541
1.473  2.277926  0.040702
1.669  2.466091  0.041865
1.865  2.586152  0.039359
2.062  2.783541  0.036393
2.258  3.112815  0.034734
2.454  3.439898  0.033467
2.651  3.716670  0.032538
2.847  4.032416  0.032584
3.043  4.262244  0.033086
3.240  4.174426  0.032729
3.436  3.993871  0.032251
3.632  3.750195  0.032676
3.829  3.412596  0.033174
4.025  3.131926  0.034766
4.222  2.793981  0.036180
4.418  2.660501  0.040082
4.614  2.404116  0.041036


2-3 #otimes 2-3 GeV/c
#xi=2.654649

Dphi  CF  CFerr
-1.473  2.654137  0.164196
-1.276  2.630201  0.143470
-1.080  2.673923  0.125116
-0.884  3.046414  0.120801
-0.687  3.730166  0.125631
-0.491  5.602987  0.142682
-0.295  11.402364  0.181474
-0.098  16.527424  0.200730
0.098  16.474998  0.200781
0.295  11.371569  0.181159
0.491  5.667986  0.143371
0.687  3.689459  0.125255
0.884  3.071936  0.121432
1.080  2.613226  0.123090
1.276  2.601429  0.142337
1.473  2.583785  0.162018
1.669  2.821205  0.164217
1.865  3.476979  0.160837
2.062  4.038899  0.157071
2.258  4.819412  0.155053
2.454  5.622675  0.151740
2.651  6.464954  0.151341
2.847  7.367858  0.156441
3.043  8.098797  0.161751
3.240  8.020579  0.161217
3.436  7.372243  0.156188
3.632  6.606255  0.152797
3.829  5.641706  0.151441
4.025  4.797765  0.154748
4.222  4.154487  0.158959
4.418  3.560474  0.162651
4.614  2.874177  0.165359


3-4 #otimes 0.4-1 GeV/c
#xi=1.781233

Dphi  CF  CFerr
-1.473  1.762521  0.036713
-1.276  1.789236  0.036564
-1.080  1.833827  0.036530
-0.884  1.919314  0.034091
-0.687  2.070893  0.030844
-0.491  2.403704  0.029986
-0.295  2.908755  0.032403
-0.098  2.948143  0.033560
0.098  3.023485  0.033944
0.295  2.920256  0.032588
0.491  2.398677  0.030084
0.687  2.071877  0.030967
0.884  1.922786  0.034089
1.080  1.833026  0.036492
1.276  1.770538  0.036349
1.473  1.812388  0.037045
1.669  1.820112  0.039002
1.865  1.941504  0.040639
2.062  2.159626  0.038760
2.258  2.254874  0.035808
2.454  2.398110  0.035272
2.651  2.551662  0.034803
2.847  2.742556  0.034246
3.043  2.766236  0.033379
3.240  2.805990  0.033599
3.436  2.721360  0.033852
3.632  2.564617  0.034251
3.829  2.471664  0.035270
4.025  2.216529  0.035030
4.222  2.042238  0.036964
4.418  2.001026  0.040627
4.614  1.868473  0.039482


3-4 #otimes 1-2 GeV/c
#xi=2.269946

Dphi  CF  CFerr
-1.473  2.190793  0.112515
-1.276  2.358421  0.108232
-1.080  2.231363  0.090675
-0.884  2.433113  0.086565
-0.687  2.928818  0.086953
-0.491  4.140038  0.095738
-0.295  6.972207  0.111989
-0.098  8.813117  0.118167
0.098  9.165005  0.121008
0.295  6.941679  0.110847
0.491  4.268139  0.097901
0.687  3.012025  0.088649
0.884  2.570678  0.090111
1.080  2.365849  0.093058
1.276  1.946633  0.097920
1.473  2.405847  0.118676
1.669  2.550982  0.121089
1.865  2.644219  0.113261
2.062  3.143285  0.109019
2.258  3.795594  0.108706
2.454  3.951581  0.101030
2.651  4.654444  0.102746
2.847  5.238138  0.104776
3.043  5.624276  0.107195
3.240  5.716195  0.107882
3.436  5.340197  0.104940
3.632  4.938181  0.105647
3.829  4.249845  0.104015
4.025  3.422802  0.102807
4.222  3.177818  0.108354
4.418  2.909365  0.118657
4.614  2.432023  0.116484


3-4 #otimes 2-3 GeV/c
#xi=3.108679

Dphi  CF  CFerr
-1.473  3.122710  0.507381
-1.276  2.784692  0.415707
-1.080  3.241646  0.388089
-0.884  3.738102  0.376406
-0.687  5.230517  0.421247
-0.491  7.243791  0.458128
-0.295  17.833574  0.645169
-0.098  32.880318  0.801531
0.098  32.787701  0.801026
0.295  18.388685  0.655779
0.491  7.523026  0.468439
0.687  4.830190  0.407779
0.884  3.311541  0.355642
1.080  2.623632  0.347975
1.276  2.997118  0.428811
1.473  2.381290  0.442726
1.669  3.756012  0.543163
1.865  4.336832  0.505256
2.062  4.714647  0.482345
2.258  6.832838  0.525903
2.454  8.014227  0.512005
2.651  10.345529  0.540787
2.847  12.418978  0.574649
3.043  14.026428  0.599643
3.240  14.540996  0.610972
3.436  12.686571  0.581064
3.632  10.915793  0.555114
3.829  7.464027  0.490975
4.025  6.487437  0.508255
4.222  4.649270  0.473991
4.418  4.580840  0.519880
4.614  3.843608  0.544634


3-4 #otimes 3-4 GeV/c
#xi=3.882553

Dphi  CF  CFerr
-1.473  1.989209  1.149684
-1.276  2.316595  1.037224
-1.080  2.992585  1.059627
-0.884  5.323106  1.258069
-0.687  7.097889  1.397130
-0.491  10.593588  1.570284
-0.295  31.218544  2.441069
-0.098  83.474777  3.640850
0.098  84.375603  3.656495
0.295  30.349651  2.378026
0.491  10.980210  1.593569
0.687  6.562294  1.344049
0.884  5.291022  1.250628
1.080  2.936736  1.039825
1.276  2.838122  1.160318
1.473  2.696088  1.349872
1.669  5.350986  1.896947
1.865  5.421942  1.569438
2.062  8.774135  1.837834
2.258  9.317243  1.709060
2.454  14.057990  1.909459
2.651  21.104155  2.199848
2.847  25.562813  2.353858
3.043  37.828629  2.789418
3.240  37.629612  2.796076
3.436  27.002287  2.401101
3.632  21.700104  2.227142
3.829  13.563899  1.858571
4.025  10.059630  1.787362
4.222  7.460366  1.674564
4.418  4.374794  1.461477
4.614  6.590114  2.090903


4-5 #otimes 0.4-1 GeV/c
#xi=1.721049

Dphi  CF  CFerr
-1.473  1.717784  0.083511
-1.276  1.597251  0.079829
-1.080  1.783701  0.083439
-0.884  1.936793  0.079149
-0.687  2.060550  0.071045
-0.491  2.481734  0.070288
-0.295  3.234681  0.078982
-0.098  3.307641  0.082396
0.098  3.505816  0.084662
0.295  3.271593  0.079554
0.491  2.446330  0.070157
0.687  2.150851  0.073129
0.884  1.770819  0.075646
1.080  1.667338  0.080663
1.276  1.858549  0.086456
1.473  1.854449  0.086927
1.669  1.747587  0.088687
1.865  1.987443  0.095719
2.062  2.197190  0.090716
2.258  2.327114  0.084350
2.454  2.658109  0.086137
2.651  2.844767  0.084910
2.847  2.974748  0.082189
3.043  3.070724  0.081229
3.240  3.026764  0.080646
3.436  2.888915  0.080523
3.632  2.706469  0.080913
3.829  2.427578  0.080442
4.025  2.336002  0.082899
4.222  2.218604  0.089063
4.418  1.932653  0.092228
4.614  1.871827  0.090885


4-5 #otimes 1-2 GeV/c
#xi=2.215518

Dphi  CF  CFerr
-1.473  2.377385  0.269522
-1.276  2.146925  0.237349
-1.080  2.152614  0.204543
-0.884  2.392385  0.198919
-0.687  2.957605  0.201563
-0.491  4.766252  0.239000
-0.295  8.086464  0.278031
-0.098  12.225315  0.322509
0.098  12.041286  0.321745
0.295  8.650224  0.285522
0.491  4.860149  0.242105
0.687  3.599997  0.224104
0.884  2.502536  0.205987
1.080  1.935978  0.193792
1.276  2.388404  0.252069
1.473  2.127288  0.260172
1.669  2.550964  0.282244
1.865  2.883646  0.276611
2.062  3.641703  0.271199
2.258  3.619765  0.246247
2.454  4.465705  0.248668
2.651  5.534142  0.259898
2.847  6.613892  0.272067
3.043  7.110607  0.279707
3.240  7.360927  0.282321
3.436  6.757395  0.272326
3.632  5.756638  0.263806
3.829  4.441766  0.245091
4.025  3.873068  0.252619
4.222  3.402514  0.258395
4.418  2.951010  0.276814
4.614  1.840185  0.233932


4-5 #otimes 2-3 GeV/c
#xi=2.845324

Dphi  CF  CFerr
-1.473  4.395387  1.393105
-1.276  2.617647  0.926856
-1.080  2.234102  0.745539
-0.884  4.206323  0.919837
-0.687  2.735874  0.707391
-0.491  9.031747  1.181376
-0.295  24.333298  1.741826
-0.098  48.261292  2.240146
0.098  53.117603  2.384478
0.295  24.739292  1.758023
0.491  7.150248  1.046888
0.687  5.063476  0.959411
0.884  3.074932  0.795179
1.080  2.219400  0.740638
1.276  2.946495  0.983702
1.473  1.307998  0.755682
1.669  4.731052  1.429903
1.865  2.897585  0.967274
2.062  6.701521  1.318698
2.258  6.684704  1.204878
2.454  6.849813  1.086821
2.651  13.125695  1.416890
2.847  21.496452  1.751155
3.043  24.040005  1.828968
3.240  23.997387  1.830806
3.436  21.714226  1.735904
3.632  13.650355  1.425701
3.829  11.321021  1.401465
4.025  8.163473  1.313246
4.222  5.866371  1.226896
4.418  4.202755  1.125648
4.614  3.274836  1.159738


4-5 #otimes 3-4 GeV/c
#xi=4.132205

Dphi  CF  CFerr
-1.473  7.506907  5.328328
-1.276  4.991253  3.538208
-1.080  5.576248  3.228610
-0.884  1.573246  1.574555
-0.687  4.321574  2.501008
-0.491  14.444487  4.200813
-0.295  52.059631  7.340950
-0.098  135.982239  10.988632
0.098  141.607376  10.930875
0.295  60.415245  8.044575
0.491  9.813891  3.487183
0.687  6.016344  3.017225
0.884  6.445972  3.233403
1.080  1.983719  1.985686
1.276  2.738032  2.741852
1.473  3.424658  3.430517
1.669  14.149505  7.125432
1.865  12.077294  5.433648
2.062  8.304356  4.169416
2.258  11.241303  4.272674
2.454  20.445169  5.333503
2.651  25.217442  5.572096
2.847  48.153179  7.608927
3.043  62.213184  8.496386
3.240  69.807587  8.695610
3.436  43.415230  7.012044
3.632  25.850676  5.582771
3.829  13.526327  4.311421
4.025  4.784630  2.771343
4.222  10.803185  4.857585
4.418  7.080855  4.103083
4.614  7.126897  5.057592


4-5 #otimes 4-5 GeV/c
#xi=9.625615

Dphi  CF  CFerr
-1.473  0.000000  0.000000
-1.276  0.000000  0.000000
-1.080  9.174312  9.216300
-0.884  0.000000  0.000000
-0.687  7.580598  7.609657
-0.491  29.847940  13.547033
-0.295  66.037735  18.222773
-0.098  347.906342  41.665302
0.098  363.281250  43.983952
0.295  68.965515  19.056793
0.491  24.242424  12.267256
0.687  7.154572  7.180318
0.884  0.000000  0.000000
1.080  0.000000  0.000000
1.276  0.000000  0.000000
1.473  0.000000  0.000000
1.669  0.000000  0.000000
1.865  30.303030  21.749714
2.062  11.111111  11.172669
2.258  24.793388  14.490835
2.454  26.136488  13.237970
2.651  81.761009  23.585236
2.847  102.034576  24.603609
3.043  105.527641  24.212597
3.240  119.318184  27.546965
3.436  101.123596  25.011187
3.632  82.150627  22.967062
3.829  31.007751  15.742412
4.025  24.528564  14.334718
4.222  0.000000  0.000000
4.418  12.195122  12.269258
4.614  0.000000  0.000000


5-10 #otimes 0.4-1 GeV/c
#xi=1.801056

Dphi  CF  CFerr
-1.473  1.752070  0.049861
-1.276  1.784446  0.049887
-1.080  1.884576  0.049950
-0.884  1.977824  0.046536
-0.687  2.334743  0.044951
-0.491  2.824940  0.044931
-0.295  3.766377  0.051467
-0.098  4.220489  0.056553
0.098  4.144056  0.056331
0.295  3.611755  0.051751
0.491  2.766788  0.046848
0.687  2.308772  0.047901
0.884  2.006186  0.050850
1.080  1.819397  0.053605
1.276  1.720440  0.053407
1.473  1.738479  0.053433
1.669  1.899615  0.057199
1.865  2.045780  0.058667
2.062  2.243354  0.055630
2.258  2.379449  0.052436
2.454  2.878674  0.055154
2.651  3.159952  0.053901
2.847  3.494370  0.053351
3.043  3.870462  0.055565
3.240  3.828527  0.056118
3.436  3.697521  0.055699
3.632  3.299568  0.053809
3.829  3.007151  0.053919
4.025  2.533553  0.052840
4.222  2.222864  0.055222
4.418  2.188438  0.060053
4.614  1.902528  0.054087


5-10 #otimes 1-2 GeV/c
#xi=2.557813

Dphi  CF  CFerr
-1.473  2.653902  0.168383
-1.276  2.686807  0.155627
-1.080  2.320521  0.121141
-0.884  2.973495  0.126444
-0.687  3.734661  0.129593
-0.491  6.256390  0.160678
-0.295  11.753071  0.200145
-0.098  18.689833  0.245800
0.098  18.443733  0.245979
0.295  11.765491  0.206928
0.491  6.345408  0.172422
0.687  3.859567  0.146863
0.884  3.031647  0.145713
1.080  2.413172  0.141868
1.276  2.339385  0.161498
1.473  2.597617  0.182885
1.669  2.586233  0.173340
1.865  3.239296  0.175339
2.062  3.825999  0.165404
2.258  4.523648  0.163589
2.454  6.167629  0.176228
2.651  7.585915  0.186086
2.847  9.959324  0.203766
3.043  11.825172  0.218172
3.240  11.758474  0.212211
3.436  10.134666  0.200734
3.632  8.211555  0.190634
3.829  6.227829  0.178247
4.025  4.968360  0.173377
4.222  4.210709  0.174672
4.418  3.051908  0.169912
4.614  2.548222  0.168541


5-10 #otimes 2-3 GeV/c
#xi=4.006674

Dphi  CF  CFerr
-1.473  3.692024  0.757023
-1.276  2.402455  0.502407
-1.080  3.848356  0.552345
-0.884  3.718207  0.490415
-0.687  7.195393  0.651766
-0.491  12.526937  0.805865
-0.295  41.434399  1.395446
-0.098  100.735786  2.104158
0.098  100.353706  2.134406
0.295  37.696144  1.371015
0.491  13.547757  0.909628
0.687  6.602022  0.693730
0.884  4.194293  0.602166
1.080  3.765231  0.630348
1.276  3.728486  0.707793
1.473  3.012360  0.733253
1.669  3.683536  0.771524
1.865  5.127732  0.777815
2.062  6.883857  0.780958
2.258  10.624398  0.896615
2.454  13.513070  0.919470
2.651  22.281271  1.145026
2.847  33.420078  1.364560
3.043  46.244659  1.548003
3.240  47.503918  1.558830
3.436  38.663322  1.436784
3.632  23.479607  1.150241
3.829  15.617632  1.012204
4.025  9.289114  0.853810
4.222  8.795427  0.902450
4.418  5.127305  0.769018
4.614  4.427927  0.841233


5-10 #otimes 3-4 GeV/c
#xi=7.487635

Dphi  CF  CFerr
-1.473  6.190673  2.789474
-1.276  11.197076  3.274957
-1.080  5.875473  1.972127
-0.884  7.217425  1.945815
-0.687  9.416864  2.078488
-0.491  20.038406  2.901733
-0.295  89.152275  6.119504
-0.098  388.937775  14.654471
0.098  366.422729  13.794536
0.295  91.648422  6.538234
0.491  25.177759  3.526504
0.687  7.284614  2.037715
0.884  10.102711  2.639047
1.080  5.789909  2.203841
1.276  6.281352  2.584010
1.473  3.352423  2.379446
1.669  7.384237  3.042306
1.865  8.155560  2.745267
2.062  13.580320  3.166876
2.258  16.537874  3.185460
2.454  27.173100  3.849733
2.651  58.281128  5.302062
2.847  97.132149  6.898077
3.043  145.628418  8.444840
3.240  160.204865  8.739165
3.436  96.167442  6.676934
3.632  54.603107  5.147729
3.829  30.756302  4.078882
4.025  17.726526  3.250037
4.222  17.012882  3.618527
4.418  8.634026  2.759024
4.614  5.221364  2.626584


5-10 #otimes 4-5 GeV/c
#xi=8.038786

Dphi  CF  CFerr
-1.473  0.000000  0.000000
-1.276  19.246191  8.817466
-1.080  0.000000  0.000000
-0.884  2.809318  2.818628
-0.687  12.696174  5.265296
-0.491  26.783415  7.673113
-0.295  158.594025  19.304796
-0.098  888.328674  62.993950
0.098  853.904724  59.565983
0.295  186.957916  22.792625
0.491  30.909246  8.283066
0.687  27.203175  9.901882
0.884  7.556675  5.390313
1.080  4.488498  4.512609
1.276  0.000000  0.000000
1.473  6.347527  6.395443
1.669  0.000000  0.000000
1.865  13.631200  8.004786
2.062  38.653568  12.766594
2.258  47.725578  12.590840
2.454  33.226837  9.566751
2.651  97.070137  16.790598
2.847  225.281601  27.193445
3.043  378.347931  37.404297
3.240  358.663971  34.507294
3.436  261.142059  29.715723
3.632  149.647568  20.993036
3.829  48.328636  11.421975
4.025  32.616753  10.212943
4.222  18.301052  8.364038
4.418  9.450679  6.762471
4.614  6.362672  6.412826


5-10 #otimes 5-10 GeV/c
#xi=8.038665

Dphi  CF  CFerr
-1.473  11.315417  11.468473
-1.276  0.000000  0.000000
-1.080  4.522329  4.547729
-0.884  3.357113  3.370312
-0.687  15.186028  6.913738
-0.491  29.931973  9.338534
-0.295  164.266006  23.844763
-0.098  1310.984375  104.228058
0.098  1315.697510  104.718666
0.295  124.084450  20.329819
0.491  40.892193  12.867619
0.687  23.380419  9.806327
0.884  5.611410  5.646569
1.080  0.000000  0.000000
1.276  7.048458  7.104226
1.473  0.000000  0.000000
1.669  7.769505  7.839577
1.865  13.165112  9.450292
2.062  31.809145  13.435308
2.258  29.723991  11.632907
2.454  85.472626  19.083950
2.651  157.736816  27.101477
2.847  336.215393  40.326900
3.043  627.414062  65.350052
3.240  515.090515  52.025764
3.436  307.787018  35.707916
3.632  120.294052  20.292784
3.829  60.453400  15.688739
4.025  27.745665  9.558414
4.222  20.456871  9.378222
4.418  4.588033  4.614285
4.614  8.708273  8.797029
