Fig.26 
invariant mass spectra of p+p and Au+Au for MB and different centrality classes

pp data as in Fig.24
Au+Au MB data as in Fig.25

00-10%
data
0.0025 145.978 1.18668 21.8966
0.0075 137.771 1.17326 20.6657
0.0125 71.738 0.888189 10.7607
0.0175 47.2193 0.772259 7.0829
0.0225 31.9247 0.700209 4.78871
0.0275 23.0499 0.641858 3.45749
0.0325 22.4365 0.670367 3.3655
0.0375 17.8319 0.663236 2.67481
0.0425 13.0919 0.651872 1.96383
0.0475 12.1357 0.667031 1.82041
0.0525 10.3259 0.663683 1.54895
0.0575 8.17937 0.666417 1.22701
0.0625 6.35799 0.675689 0.953857
0.0675 6.4867 0.688825 0.973176
0.0725 6.00717 0.702903 0.901283
0.0775 4.46887 0.70912 0.670633
0.085 3.95902 0.513465 0.594236
0.095 2.46073 0.53002 0.369842
0.105 1.9129 0.547763 0.288022
0.115 2.24102 0.56663 0.337244
0.125 2.49209 0.586932 0.374934
0.14 2.66967 0.434056 0.401682
0.1625 1.58755 0.414358 0.240713
0.1875 1.0673 0.443464 0.164925
0.225 1.88509 0.357481 0.286677
0.28 2.90958 0.395652 0.440589
0.37 2.63094 0.371171 0.405799
0.49 3.76946 0.43505 0.579202
0.575 1.85444 0.582906 0.295206
0.625 1.24121 0.466648 0.204226
0.675 1.09318 0.401304 0.177798
0.73 0.618307 0.313204 0.107494
0.78 1.12478 0.335545 0.17429
0.9 0.256454 0.112141 0.0469086
1.025 0.352926 0.162986 0.0551366
1.275 0.0819717 upper limit
1.75  0.0214564 upper limit
2.25 0.0124875 upper limit
2.7 0.004972 upper limit
2.925 0.0100806 upper limit
2.975 0.00819587 0.00468067 0.00123063
3.025 0.0078752 0.0044922 0.00118239
3.075 0.0163053 0.00483293 0.00244619
3.125 0.030593 0.00554987 0.0045891
3.175 0.00887462 0.0037803 0.00133151
3.225 0.0051454 0.0032594 0.000772262
3.275 0.00426624 upper limit
3.425 0.00137455 upper limit
3.7   0.00172363 upper limit
4.175 0.000417671 upper limit
cocktail
0.0125	109.144
0.0375	19.1428
0.0625	8.65853
0.0875	3.97872
0.1125	1.47711
0.1375	0.622618
0.1625	0.524947
0.1875	0.471998
0.2125	0.431808
0.2375	0.404285
0.2625	0.38765
0.2875	0.370209
0.3125	0.35991
0.3375	0.351082
0.3625	0.33236
0.3875	0.31476
0.4125	0.2988
0.4375	0.286307
0.4625	0.256423
0.4875	0.238038
0.5125	0.227567
0.5375	0.222007
0.5625	0.212864
0.5875	0.208322
0.6125	0.203659
0.6375	0.180124
0.6625	0.171309
0.6875	0.18279
0.7125	0.201199
0.7375	0.225617
0.7625	0.382738
0.7875	0.779404
0.8125	0.18736
0.8375	0.117399
0.8625	0.0955493
0.8875	0.0831852
0.9125	0.0748798
0.9375	0.0692081
0.9625	0.067151
0.9875	0.0901859
1.0125	0.568102
1.0375	0.261102
1.0625	0.057424
1.0875	0.0469309
1.1125	0.0428599
1.1375	0.0398639
1.1625	0.0373492
1.1875	0.0350788
1.25	0.0303627
1.35	0.0241696
1.45	0.0193106
1.55	0.0155191
1.65	0.0124776
1.75	0.010059
1.85	0.00811585
1.95	0.00654991
2.05	0.00520087
2.15	0.00424541
2.25	0.00349595
2.35	0.0029138
2.45	0.00247669
2.55	0.00217677
2.65	0.00199994
2.75	0.00198806
2.825	0.00217099
2.875	0.00247616
2.9125	0.00287902
2.9375	0.00330988
2.9625	0.00397814
2.9875	0.00533773
3.0125	0.00762446
3.0375	0.0123558
3.0625	0.0190438
3.0875	0.0267523
3.1125	0.0282466
3.1375	0.0253239
3.1625	0.0164727
3.1875	0.00959674
3.2125	0.0044849
3.2375	0.00232549
3.2625	0.00117368
3.2875	0.000736664
3.4	0.000348165
3.5125	0.00023992
3.5375	0.000234868
3.5625	0.000237324
3.5875	0.000248997
3.6125	0.000289435
3.6375	0.000350383
3.6625	0.000436207
3.6875	0.000459499
3.7125	0.000433271
3.7375	0.000329614
3.7625	0.000236829
3.7875	0.000167005
3.9	9.25673e-005
4.15	5.09551e-005
4.35	3.23425e-005
4.45	2.59736e-005
4.55	2.0859e-005
4.8	1.24211e-005
10-20%
data
0.0025 7.07884 0.06002 1.06183
0.0075 6.52814 0.0580973 0.979221
0.0125 3.31329 0.0423819 0.496993
0.0175 2.16819 0.0356029 0.325228
0.0225 1.50318 0.0311971 0.225476
0.0275 0.997138 0.0267147 0.149571
0.0325 1.00846 0.0276776 0.15127
0.0375 0.818312 0.0268713 0.122747
0.0425 0.646405 0.0258769 0.0969612
0.0475 0.540943 0.0254265 0.0811421
0.0525 0.459497 0.0248074 0.0689253
0.0575 0.401549 0.0249707 0.0602335
0.0625 0.363978 0.0251267 0.054598
0.0675 0.290391 0.0248259 0.0435603
0.0725 0.267431 0.0250718 0.0401167
0.0775 0.243744 0.0254122 0.0365641
0.0825 0.179231 0.0253944 0.0268885
0.0875 0.194804 0.0260058 0.0292243
0.095 0.0990414 0.0182549 0.0148645
0.105 0.0890423 0.0188674 0.0133671
0.115 0.0781475 0.0192526 0.0117362
0.125 0.0729055 0.0199481 0.0109532
0.135 0.0692585 0.0204211 0.0104089
0.145 0.0534971 0.0209095 0.00805389
0.1625 0.0717661 0.014085 0.0107908
0.1875 0.0579674 0.0150228 0.0087356
0.225 0.049632 0.0120485 0.00751157
0.28 0.0325395 0.0132324 0.00504443
0.37 0.0361946 0.0124403 0.00578428
0.49 0.0385678 0.0146078 0.00637247
0.655 0.0311578 0.00748202 0.00494827
0.78 0.0305487 upper limit
0.9 0.0072335 0.0038391 0.0012353
1.025 0.00672105 0.00561392 0.00106522
1.275 0.00274816 0.00119275 0.000824291
1.75 0.00103346 0.000432632 0.000190613
2.25 0.000369401 upper limit
2.7  0.000183351 upper limit
2.95 0.000205414 0.000128822 3.08568e-005
3.025 0.000638169 0.000208282 9.57357e-005
3.075 0.00115603 0.00024407 0.000173409
3.125 0.00131607 0.000250526 0.000197414
3.175 0.000329172 upper limit
3.225 0.000193724 upper limit
3.275 0.000278835 upper limit
3.425 9.51231e-005 upper limit
3.7   4.32323e-005 3.1058e-005 6.48816e-006
4.175 1.25116e-005 upper limit
cocktail
0.0125	4.68072
0.0375	0.831147
0.0625	0.369306
0.0875	0.168468
0.1125	0.0623488
0.1375	0.0262481
0.1625	0.02228
0.1875	0.0197107
0.2125	0.0179728
0.2375	0.0171125
0.2625	0.0163283
0.2875	0.0158642
0.3125	0.0149807
0.3375	0.0145562
0.3625	0.0134264
0.3875	0.012974
0.4125	0.0120073
0.4375	0.0111085
0.4625	0.0101791
0.4875	0.00909763
0.5125	0.00876438
0.5375	0.0085805
0.5625	0.00828927
0.5875	0.00818771
0.6125	0.00783772
0.6375	0.00698887
0.6625	0.00659399
0.6875	0.00709584
0.7125	0.00793626
0.7375	0.00896673
0.7625	0.0157747
0.7875	0.0325075
0.8125	0.00745679
0.8375	0.00460981
0.8625	0.00372154
0.8875	0.00321001
0.9125	0.00287529
0.9375	0.00264039
0.9625	0.00257018
0.9875	0.00359292
1.0125	0.0240317
1.0375	0.010937
1.0625	0.00222801
1.0875	0.00178266
1.1125	0.0016187
1.1375	0.00150218
1.1625	0.0014063
1.1875	0.00131842
1.25	0.00113812
1.35	0.000905003
1.45	0.000724843
1.55	0.000581438
1.65	0.000467934
1.75	0.00037624
1.85	0.000304864
1.95	0.000246957
2.05	0.000196726
2.15	0.000161565
2.25	0.000134257
2.35	0.000113352
2.45	9.81459e-005
2.55	8.85921e-005
2.65	8.42493e-005
2.75	8.75263e-005
2.825	9.94635e-005
2.875	0.00011672
2.9125	0.000138611
2.9375	0.000161592
2.9625	0.000196876
2.9875	0.000268048
3.0125	0.000387362
3.0375	0.000633658
3.0625	0.000981589
3.0875	0.00138252
3.1125	0.00146057
3.1375	0.00130911
3.1625	0.000849621
3.1875	0.000492735
3.2125	0.000227485
3.2375	0.000115612
3.2625	5.60748e-005
3.2875	3.36634e-005
3.4	1.46919e-005
3.5125	1.03135e-005
3.5375	1.04296e-005
3.5625	1.11071e-005
3.5875	1.2514e-005
3.6125	1.62156e-005
3.6375	2.153e-005
3.6625	2.88127e-005
3.6875	3.1029e-005
3.7125	2.92366e-005
3.7375	2.11925e-005
3.7625	1.40076e-005
3.7875	8.65601e-006
3.9	3.6806e-006
4.15	1.90049e-006
4.35	1.20629e-006
4.45	9.68747e-007
4.55	7.77983e-007
4.8	4.63272e-007
20-40%
data
0.0025 0.154123 0.00111209 0.0231184
0.0075 0.137024 0.00105243 0.0205535
0.0125 0.0710586 0.000765395 0.0106588
0.0175 0.0436439 0.000611511 0.00654659
0.0225 0.0315149 0.000531769 0.00472724
0.0275 0.0215955 0.000446257 0.00323933
0.0325 0.0201598 0.000442431 0.00302397
0.0375 0.0157756 0.000408354 0.00236634
0.0425 0.0129917 0.000389743 0.00194876
0.0475 0.0116042 0.000382331 0.00174063
0.0525 0.00932096 0.000358355 0.00139815
0.0575 0.00767027 0.000346765 0.00115054
0.0625 0.00699057 0.000346027 0.00104859
0.0675 0.00600149 0.000340035 0.000900231
0.0725 0.00529345 0.00033626 0.000794027
0.0775 0.00444807 0.000334459 0.000667223
0.0825 0.00330988 0.000326902 0.000496499
0.0875 0.00305292 0.000331023 0.000457959
0.0925 0.00260225 0.000328897 0.000390363
0.0975 0.00210019 0.00033102 0.000315062
0.1025 0.00195674 0.000335153 0.000293551
0.1075 0.00141849 0.000336713 0.000212835
0.115 0.00147836 0.000238174 0.000221816
0.125 0.00116033 0.000245107 0.000174142
0.135 0.00114382 0.000250041 0.000171676
0.145 0.00103853 0.00025431 0.000155904
0.1625 0.0009224 0.00017017 0.000138526
0.1875 0.00061565 0.000180507 9.26608e-005
0.225 0.000585165 0.000144466 8.8238e-005
0.375 0.000417931 0.000103581 6.53665e-005
0.63 0.000104801 8.86743e-005 2.25773e-005
0.78 0.000245847 0.00013718 3.78787e-005
0.9 7.86813e-005 4.62483e-005 1.29802e-005
1.025 0.000292901 6.90241e-005 4.405e-005
1.15 5.13396e-005 2.67642e-005 1.25574e-005
1.375 2.55201e-005 1.50602e-005 5.60191e-006
1.75 5.98972e-006 5.34782e-006 1.40415e-006
2.25 7.39166e-006 2.22262e-006 1.12329e-006
2.7 2.88349e-006 1.21571e-006 4.34493e-007
2.925 5.98429e-006 2.89457e-006 8.97865e-007
2.975 7.8911e-006 2.98174e-006 1.18381e-006
3.025 9.23633e-006 2.99342e-006 1.38554e-006
3.0625 2.40102e-005 5.58356e-006 3.60155e-006
3.1 3.767e-005 4.83992e-006 5.65051e-006
3.1375 3.06357e-005 6.25051e-006 4.59537e-006
3.1625 1.13975e-005 4.18309e-006 1.70966e-006
3.2 2.12271e-006 1.77972e-006 3.18514e-007
3.2375 2.34769e-006 upper limit
3.4 6.72602e-007 5.19824e-007 1.01033e-007
3.7 6.4805e-007 upper limit
4.175 1.60142e-007 1.06563e-007 9.17615e-008
cocktail
0.0125	0.0886214
0.0375	0.0155855
0.0625	0.00696372
0.0875	0.00322879
0.1125	0.00114507
0.1375	0.000505991
0.1625	0.000428595
0.1875	0.000376163
0.2125	0.000337599
0.2375	0.000330429
0.2625	0.000303748
0.2875	0.000293651
0.3125	0.000274406
0.3375	0.000264485
0.3625	0.000254295
0.3875	0.000234243
0.4125	0.000220264
0.4375	0.000200091
0.4625	0.00018231
0.4875	0.000165922
0.5125	0.000155862
0.5375	0.000149967
0.5625	0.000145446
0.5875	0.000142133
0.6125	0.000138072
0.6375	0.000122703
0.6625	0.000115921
0.6875	0.00012581
0.7125	0.000141074
0.7375	0.00016131
0.7625	0.000291754
0.7875	0.000597531
0.8125	0.00013366
0.8375	8.03559e-005
0.8625	6.41048e-005
0.8875	5.48031e-005
0.9125	4.88495e-005
0.9375	4.51935e-005
0.9625	4.39286e-005
0.9875	6.42314e-005
1.0125	0.000446992
1.0375	0.000202262
1.0625	3.85999e-005
1.0875	3.03451e-005
1.1125	2.73324e-005
1.1375	2.53193e-005
1.1625	2.36227e-005
1.1875	2.22231e-005
1.25	1.91093e-005
1.35	1.5176e-005
1.45	1.21422e-005
1.55	9.74758e-006
1.65	7.84249e-006
1.75	6.33172e-006
1.85	5.14053e-006
1.95	4.16443e-006
2.05	3.32761e-006
2.15	2.75005e-006
2.25	2.30641e-006
2.35	1.97238e-006
2.45	1.7385e-006
2.55	1.60839e-006
2.65	1.57621e-006
2.75	1.69727e-006
2.825	1.98761e-006
2.875	2.38024e-006
2.9125	2.86785e-006
2.9375	3.37446e-006
2.9625	4.14784e-006
2.9875	5.70015e-006
3.0125	8.29749e-006
3.0375	1.36519e-005
3.0625	2.1213e-005
3.0875	2.99246e-005
3.1125	3.16246e-005
3.1375	2.83406e-005
3.1625	1.83675e-005
3.1875	1.06221e-005
3.2125	4.8664e-006
3.2375	2.44102e-006
3.2625	1.1519e-006
3.2875	6.68784e-007
3.4	2.70273e-007
3.5125	1.86646e-007
3.5375	1.91427e-007
3.5625	2.08473e-007
3.5875	2.41516e-007
3.6125	3.25115e-007
3.6375	4.44208e-007
3.6625	6.0665e-007
3.6875	6.5715e-007
3.7125	6.19068e-007
3.7375	4.42893e-007
3.7625	2.85609e-007
3.7875	1.68728e-007
3.9	6.36421e-008
4.15	3.16748e-008
4.35	2.01048e-008
4.45	1.61458e-008
4.55	1.29664e-008
4.8	7.7212e-009
40-60%
data
0.0025 0.0060355 6.67332e-005 0.000905325
0.0075 0.00539535 6.31867e-005 0.000809302
0.0125 0.0027101 4.49411e-005 0.000406515
0.0175 0.0016743 3.56056e-005 0.000251144
0.0225 0.00122223 3.06702e-005 0.000183335
0.0275 0.000803029 2.46197e-005 0.000120454
0.0325 0.000800712 2.47578e-005 0.000120107
0.0375 0.000625725 2.23306e-005 9.38588e-005
0.0425 0.000547598 2.11646e-005 8.21396e-005
0.0475 0.000430728 1.92944e-005 6.46092e-005
0.0525 0.000344581 1.7675e-005 5.16871e-005
0.0575 0.000324071 1.75071e-005 4.86107e-005
0.0625 0.000255632 1.62023e-005 3.83448e-005
0.0675 0.0002053 1.52982e-005 3.0795e-005
0.0725 0.000177817 1.47929e-005 2.66726e-005
0.0775 0.00018858 1.5197e-005 2.82871e-005
0.0825 0.000133583 1.40707e-005 2.00375e-005
0.0875 9.82733e-005 1.32244e-005 1.47411e-005
0.0925 7.95426e-005 1.32295e-005 1.19315e-005
0.0975 6.81203e-005 1.29194e-005 1.02182e-005
0.1025 6.60539e-005 1.30948e-005 9.90828e-006
0.1075 3.94006e-005 1.23192e-005 5.91042e-006
0.115 6.00773e-005 9.11868e-006 9.01185e-006
0.125 5.84206e-005 9.25771e-006 8.76338e-006
0.135 4.52382e-005 9.20712e-006 6.78615e-006
0.145 3.72396e-005 9.22526e-006 5.58651e-006
0.1625 2.8573e-005 6.04081e-006 4.28681e-006
0.1875 2.64901e-005 6.39763e-006 3.97467e-006
0.225 2.13182e-005 5.00814e-006 3.19972e-006
0.375 7.1699e-006 3.53988e-006 1.10045e-006
0.63  5.12351e-006 upper limit
0.78 1.16793e-005 4.71304e-006 1.75515e-006
0.9 3.37912e-006 1.56531e-006 5.11125e-007
1.025 1.11073e-005 2.41597e-006 1.66654e-006
1.15 2.60007e-006 9.10962e-007 4.0801e-007
1.375 1.03726e-006 5.13491e-007 1.63341e-007
1.75 5.19755e-007 1.87703e-007 7.9106e-008
2.25 1.88651e-007 upper limit
2.7 1.84759e-007 5.21598e-008 2.7719e-008
2.925 1.69092e-007 upper limit
3 1.88805e-007 8.34984e-008 2.83215e-008
3.0625 1.12729e-006 3.53696e-007 1.69094e-007
3.0875 1.35071e-006 3.71339e-007 2.02607e-007
3.1125 1.20297e-006 3.58471e-007 1.80446e-007
3.1375 1.2142e-006 3.54458e-007 1.8213e-007
3.1875 1.13984e-007 7.57506e-008 1.70982e-008
3.2375 2.87905e-007 upper limit
3.4  5.38404e-008 upper limit
3.7 2.10495e-008 1.69212e-008 3.15757e-009
4.175 5.19422e-009 4.36867e-009 1.0777e-009
cocktail
0.0125	0.00325142
0.0375	0.000574372
0.0625	0.000255364
0.0875	0.000117473
0.1125	4.25375e-005
0.1375	1.83011e-005
0.1625	1.5036e-005
0.1875	1.36153e-005
0.2125	1.2212e-005
0.2375	1.13278e-005
0.2625	1.06883e-005
0.2875	1.01019e-005
0.3125	9.59363e-006
0.3375	9.23472e-006
0.3625	8.68736e-006
0.3875	8.12456e-006
0.4125	7.59054e-006
0.4375	6.8703e-006
0.4625	5.98253e-006
0.4875	5.41752e-006
0.5125	5.08172e-006
0.5375	4.93602e-006
0.5625	4.76137e-006
0.5875	4.75205e-006
0.6125	4.5567e-006
0.6375	4.02046e-006
0.6625	3.81717e-006
0.6875	4.18346e-006
0.7125	4.72758e-006
0.7375	5.48649e-006
0.7625	1.01636e-005
0.7875	2.12122e-005
0.8125	4.59957e-006
0.8375	2.65162e-006
0.8625	2.07673e-006
0.8875	1.7531e-006
0.9125	1.55939e-006
0.9375	1.42854e-006
0.9625	1.3947e-006
0.9875	2.14381e-006
1.0125	1.57905e-005
1.0375	7.11316e-006
1.0625	1.23867e-006
1.0875	9.43433e-007
1.1125	8.46876e-007
1.1375	7.80884e-007
1.1625	7.3068e-007
1.1875	6.82501e-007
1.25	5.88034e-007
1.35	4.66007e-007
1.45	3.7243e-007
1.55	2.97943e-007
1.65	2.40658e-007
1.75	1.94002e-007
1.85	1.57758e-007
1.95	1.27678e-007
2.05	1.01893e-007
2.15	8.44217e-008
2.25	7.10646e-008
2.35	6.10807e-008
2.45	5.42099e-008
2.55	5.06187e-008
2.65	5.0148e-008
2.75	5.46731e-008
2.825	6.46662e-008
2.875	7.79456e-008
2.9125	9.43398e-008
2.9375	1.11323e-007
2.9625	1.37207e-007
2.9875	1.89086e-007
3.0125	2.75844e-007
3.0375	4.54624e-007
3.0625	7.07056e-007
3.0875	9.97887e-007
3.1125	1.05468e-006
3.1375	9.45114e-007
3.1625	6.12273e-007
3.1875	3.53788e-007
3.2125	1.61712e-007
3.2375	8.07944e-008
3.2625	3.78017e-008
3.2875	2.17097e-008
3.4	8.53279e-009
3.5125	5.83977e-009
3.5375	6.0139e-009
3.5625	6.59204e-009
3.5875	7.697e-009
3.6125	1.04692e-008
3.6375	1.44121e-008
3.6625	1.97848e-008
3.6875	2.14634e-008
3.7125	2.02185e-008
3.7375	1.44166e-008
3.7625	9.23747e-009
3.7875	5.39085e-009
3.9	1.96096e-009
4.15	9.64015e-010
4.35	6.11884e-010
4.45	4.91393e-010
4.55	3.94629e-010
4.8	2.34993e-010
60-92%
data
0.0025 0.000116275 2.23726e-006 1.74413e-005
0.0075 0.000103719 2.11352e-006 1.55579e-005
0.0125 5.01874e-005 1.47267e-006 7.52811e-006
0.0175 3.33336e-005 1.20308e-006 5.00003e-006
0.0225 2.16847e-005 9.75785e-007 3.2527e-006
0.0275 1.54193e-005 8.05721e-007 2.31289e-006
0.0325 1.46434e-005 7.91687e-007 2.19651e-006
0.0375 1.3301e-005 7.56685e-007 1.99515e-006
0.0425 9.8623e-006 6.5773e-007 1.47934e-006
0.0475 8.49708e-006 6.15527e-007 1.27456e-006
0.0525 5.87659e-006 5.17421e-007 8.81488e-007
0.0575 5.84519e-006 5.19312e-007 8.76778e-007
0.0625 3.43545e-006 4.2841e-007 5.15318e-007
0.0675 4.167e-006 4.54823e-007 6.25051e-007
0.0725 3.58382e-006 4.40406e-007 5.37573e-007
0.0775 2.62466e-006 3.8215e-007 3.93699e-007
0.0825 2.4573e-006 3.83108e-007 3.68595e-007
0.0875 2.43254e-006 3.87369e-007 3.64881e-007
0.0925 1.39082e-006 3.42e-007 2.08624e-007
0.0975 8.90071e-007 3.11246e-007 1.33511e-007
0.11 1.1222e-006 1.61083e-007 1.6833e-007
0.13 6.9891e-007 1.46606e-007 1.04838e-007
0.15 4.71714e-007 1.40379e-007 7.0759e-008
0.18 3.68311e-007 1.05038e-007 5.52501e-008
0.275 3.25375e-007 7.14921e-008 4.88155e-008
0.425 2.03149e-007 1.04476e-007 3.05311e-008
0.63 8.12794e-008 6.12621e-008 1.22647e-008
0.78 3.00788e-007 9.88693e-008 4.51233e-008
0.9 5.58024e-008 3.08206e-008 8.38009e-009
1.025 1.687e-007 4.99874e-008 2.5306e-008
1.275 3.26965e-008 9.88684e-009 4.92834e-009
1.75 8.82513e-009 3.76203e-009 1.32597e-009
2.25 1.60723e-009 1.51386e-009 2.41436e-010
2.7 2.6333e-009 upper limit
2.925 0 0 0
2.975 6.03459e-009 4.628e-009 9.05189e-010
3.025 1.44305e-008 6.91259e-009 2.16457e-009
3.075 1.98565e-008 7.88031e-009 2.97847e-009
3.125 2.08939e-008 7.91298e-009 3.13409e-009
3.175 1.07657e-008 5.93621e-009 1.61486e-009
3.225 0 0 0
3.275 0 0 0
3.425 1.40198e-009 upper limit
3.7 9.86118e-010 6.97589e-010 1.47918e-010
4.175 0 0 0
cocktail
0.0125	5.96777e-005
0.0375	1.05179e-005
0.0625	4.64885e-006
0.0875	2.16076e-006
0.1125	7.88736e-007
0.1375	3.25425e-007
0.1625	2.67082e-007
0.1875	2.44308e-007
0.2125	2.165e-007
0.2375	1.98142e-007
0.2625	1.89508e-007
0.2875	1.8034e-007
0.3125	1.6934e-007
0.3375	1.61105e-007
0.3625	1.4951e-007
0.3875	1.40311e-007
0.4125	1.3169e-007
0.4375	1.19329e-007
0.4625	1.04494e-007
0.4875	9.16965e-008
0.5125	8.57129e-008
0.5375	8.32527e-008
0.5625	8.10293e-008
0.5875	8.04716e-008
0.6125	7.7396e-008
0.6375	6.74376e-008
0.6625	6.36039e-008
0.6875	7.01187e-008
0.7125	8.02964e-008
0.7375	9.38409e-008
0.7625	1.80174e-007
0.7875	3.82627e-007
0.8125	7.93232e-008
0.8375	4.46971e-008
0.8625	3.47651e-008
0.8875	2.89442e-008
0.9125	2.56425e-008
0.9375	2.33459e-008
0.9625	2.28728e-008
0.9875	3.62544e-008
1.0125	2.70412e-007
1.0375	1.21684e-007
1.0625	2.05156e-008
1.0875	1.54101e-008
1.1125	1.37596e-008
1.1375	1.26518e-008
1.1625	1.18039e-008
1.1875	1.10629e-008
1.25	9.46505e-009
1.35	7.50509e-009
1.45	5.98062e-009
1.55	4.79096e-009
1.65	3.87522e-009
1.75	3.12648e-009
1.85	2.53644e-009
1.95	2.065e-009
2.05	1.64344e-009
2.15	1.36618e-009
2.25	1.15556e-009
2.35	9.99695e-010
2.45	8.9503e-010
2.55	8.45416e-010
2.65	8.48716e-010
2.75	9.39018e-010
2.825	1.12353e-009
2.875	1.3643e-009
2.9125	1.65969e-009
2.9375	1.96473e-009
2.9625	2.4288e-009
2.9875	3.35752e-009
3.0125	4.90969e-009
3.0375	8.10687e-009
3.0625	1.26207e-008
3.0875	1.78208e-008
3.1125	1.88371e-008
3.1375	1.68793e-008
3.1625	1.093e-008
3.1875	6.30995e-009
3.2125	2.87701e-009
3.2375	1.4312e-009
3.2625	6.6333e-010
3.2875	3.7632e-010
3.4	1.43261e-010
3.5125	9.72036e-011
3.5375	1.007e-010
3.5625	1.11399e-010
3.5875	1.31496e-010
3.6125	1.8138e-010
3.6375	2.52175e-010
3.6625	3.48513e-010
3.6875	3.78797e-010
3.7125	3.56804e-010
3.7375	2.53332e-010
3.7625	1.60979e-010
3.7875	9.24359e-011
3.9	3.19563e-011
4.15	1.54242e-011
4.35	9.79015e-012
4.45	7.86229e-012
4.55	6.31407e-012
4.8	3.75989e-012
