Figure 36: pT spectra of dielectron in p+p and Au+Au

p+p
0-100 x10
data
0--0.1	0	0	0
0.1--0.2	0	0	0
0.2--0.3	0	0	0
0.3--0.4	0	0	0
0.4--0.5	0.0177698	0.000566299	0.00528648
0.5--0.6	0.00970565	0.000167556	0.00288741
0.6--0.7	0.00687445	0.00011412	0.00204513
0.7--0.8	0.00466871	0.00010227	0.00138893
0.8--0.9	0.00250311	2.70383e-005	0.00074467
0.9--1	0.00122257	9.39682e-006	0.000363711
1--1.1	0.000700095	4.82501e-006	0.000158111
1.1--1.2	0.000419434	2.72224e-006	9.47261e-005
1.2--1.3	0.000248728	1.654e-006	5.61736e-005
1.3--1.4	0.000153399	1.09372e-006	3.46441e-005
1.4--1.5	9.37199e-005	7.61961e-007	2.1166e-005
1.5--1.6	6.26509e-005	5.71155e-007	1.41493e-005
1.6--1.7	4.34102e-005	4.39874e-007	9.80389e-006
1.7--1.8	3.04835e-005	3.40972e-007	6.88447e-006
1.8--1.9	2.19691e-005	2.66125e-007	4.96156e-006
1.9--2	1.50321e-005	2.04488e-007	3.3949e-006
2--2.1	1.10032e-005	1.64248e-007	2.485e-006
2.1--2.2	7.82278e-006	1.30693e-007	1.76672e-006
2.2--2.3	5.87845e-006	1.07004e-007	1.32761e-006
2.3--2.4	4.40763e-006	8.82285e-008	9.95432e-007
2.4--2.5	3.37839e-006	7.40719e-008	7.62984e-007
2.5--2.6	2.45889e-006	6.10611e-008	5.55322e-007
2.6--2.7	1.96632e-006	5.24884e-008	4.4408e-007
2.7--2.8	1.44802e-006	4.34336e-008	3.27026e-007
2.8--2.9	1.19563e-006	3.82101e-008	2.70025e-007
2.9--3	9.38894e-007	3.26606e-008	2.12043e-007
3--3.1	7.08679e-007	2.76025e-008	1.6005e-007
3.1--3.2	5.56124e-007	2.38659e-008	1.25597e-007
3.2--3.3	4.54307e-007	2.11031e-008	1.02602e-007
3.3--3.4	3.48869e-007	1.80757e-008	7.87897e-008
3.4--3.5	2.99019e-007	1.62282e-008	6.75312e-008
3.5--3.6	2.28516e-007	1.38977e-008	5.16087e-008
3.6--3.7	1.92133e-007	1.24879e-008	4.3392e-008
3.7--3.8	1.54785e-007	1.09477e-008	3.49571e-008
3.8--3.9	1.25994e-007	9.69378e-009	2.84549e-008
3.9--4	9.82667e-008	8.3998e-009	2.21928e-008
4--4.1	8.26331e-008	7.53219e-009	1.86621e-008
4.1--4.2	6.9821e-008	6.83235e-009	1.57686e-008
4.2--4.3	5.66093e-008	6.05089e-009	1.27848e-008
4.3--4.4	4.82043e-008	5.472e-009	1.08866e-008
4.4--4.5	3.70592e-008	4.71922e-009	8.36955e-009
4.5--4.6	4.0441e-008	4.878e-009	9.13331e-009
4.6--4.7	2.24112e-008	3.55181e-009	5.06142e-009
4.7--4.8	3.30357e-008	4.23691e-009	7.46088e-009
4.8--4.9	2.82669e-008	3.85376e-009	6.38388e-009
4.9--5	1.24213e-008	2.54448e-009	2.80527e-009
cocktail
0.4--0.5	0.0180556
0.5--0.6	0.0105904
0.6--0.7	0.00761814
0.7--0.8	0.0049905
0.8--0.9	0.0025413
0.9--1	0.00122408
1--1.1	0.000700935
1.1--1.2	0.000416448
1.2--1.3	0.00024469
1.3--1.4	0.000151296
1.4--1.5	9.22221e-005
1.5--1.6	6.17291e-005
1.6--1.7	4.24023e-005
1.7--1.8	2.97767e-005
1.8--1.9	2.12316e-005
1.9--2	1.45997e-005
2--2.1	1.06141e-005
2.1--2.2	7.35197e-006
2.2--2.3	5.61319e-006
2.3--2.4	4.3728e-006
2.4--2.5	3.21896e-006
2.5--2.6	2.36335e-006
2.6--2.7	1.89284e-006
2.7--2.8	1.35406e-006
2.8--2.9	1.15235e-006
2.9--3	8.85872e-007
3--3.1	6.48222e-007
3.1--3.2	5.30065e-007
3.2--3.3	4.07483e-007
3.3--3.4	3.17583e-007
3.4--3.5	2.84306e-007
3.5--3.6	2.08618e-007
3.6--3.7	1.70145e-007
3.7--3.8	1.44372e-007
3.8--3.9	1.10921e-007
3.9--4	8.55633e-008
4--4.1	7.78676e-008
4.1--4.2	6.44214e-008
4.2--4.3	4.50864e-008
4.3--4.4	4.03091e-008
4.4--4.5	3.42532e-008
4.5--4.6	3.19796e-008
4.6--4.7	2.25388e-008
4.7--4.8	3.01839e-008
4.8--4.9	2.65379e-008
4.9--5	1.0983e-008
cocktail + direct
1--1.1	0.00070574
1.1--1.2	0.000419818
1.2--1.3	0.000247062
1.3--1.4	0.000153038
1.4--1.5	9.34141e-005
1.5--1.6	6.26171e-005
1.6--1.7	4.3112e-005
1.7--1.8	3.03221e-005
1.8--1.9	2.16597e-005
1.9--2	1.4919e-005
2--2.1	1.08668e-005
2.1--2.2	7.54426e-006
2.2--2.3	5.77626e-006
2.3--2.4	4.51178e-006
2.4--2.5	3.32564e-006
2.5--2.6	2.44661e-006
2.6--2.7	1.96586e-006
2.7--2.8	1.41175e-006
2.8--2.9	1.2026e-006
2.9--3	9.27354e-007
3--3.1	6.80958e-007
3.1--3.2	5.58474e-007
3.2--3.3	4.29766e-007
3.3--3.4	3.36269e-007
3.4--3.5	3.02387e-007
3.5--3.6	2.22274e-007
3.6--3.7	1.82223e-007
3.7--3.8	1.55024e-007
3.8--3.9	1.19411e-007
3.9--4	9.24414e-008
4--4.1	8.44839e-008
4.1--4.2	7.03963e-008
4.2--4.3	4.92669e-008
4.3--4.4	4.42843e-008
4.4--4.5	3.77694e-008
4.5--4.6	3.54785e-008
4.6--4.7	2.50718e-008
4.7--4.8	3.37728e-008
4.8--4.9	2.98658e-008
4.9--5	1.23731e-008
100-200  x 10
data
0--0.1	0	0	0
0.1--0.2	0	0	0
0.2--0.3	0	0	0
0.3--0.4	0	0	0
0.4--0.5	8.18211e-006	0.000121598	2.70685e-006
0.5--0.6	0.000120535	3.60847e-005	3.61182e-005
0.6--0.7	7.56699e-005	1.41696e-005	2.26158e-005
0.7--0.8	8.8941e-005	7.69905e-006	2.64803e-005
0.8--0.9	5.97957e-005	4.02609e-006	1.77963e-005
0.9--1	3.4926e-005	1.94422e-006	1.03934e-005
1--1.1	2.20797e-005	1.03319e-006	4.98765e-006
1.1--1.2	1.253e-005	5.92892e-007	2.83076e-006
1.2--1.3	8.0889e-006	3.90019e-007	1.82749e-006
1.3--1.4	5.34031e-006	2.66999e-007	1.20644e-006
1.4--1.5	3.57919e-006	1.84816e-007	8.08521e-007
1.5--1.6	2.26152e-006	1.28613e-007	5.10883e-007
1.6--1.7	1.44293e-006	9.43103e-008	3.25958e-007
1.7--1.8	1.07138e-006	7.54755e-008	2.42029e-007
1.8--1.9	7.71307e-007	5.91607e-008	1.74238e-007
1.9--2	6.17286e-007	4.88899e-008	1.39432e-007
2--2.1	4.30539e-007	3.79561e-008	9.72524e-008
2.1--2.2	3.27822e-007	3.09815e-008	7.40452e-008
2.2--2.3	2.93299e-007	2.75994e-008	6.62445e-008
2.3--2.4	1.29359e-007	1.76634e-008	2.92212e-008
2.4--2.5	1.16973e-007	1.55958e-008	2.64209e-008
2.5--2.6	1.17994e-007	1.52012e-008	2.66512e-008
2.6--2.7	7.63217e-008	1.15119e-008	1.72391e-008
2.7--2.8	6.7769e-008	1.04113e-008	1.53061e-008
2.8--2.9	5.31294e-008	8.89879e-009	1.19994e-008
2.9--3	3.92934e-008	7.43401e-009	8.87494e-009
3--3.1	2.11728e-008	5.31198e-009	4.78245e-009
3.1--3.2	2.79692e-008	5.8915e-009	6.31683e-009
3.2--3.3	1.50605e-008	4.24095e-009	3.40175e-009
3.3--3.4	1.00679e-008	3.33162e-009	2.27402e-009
3.4--3.5	1.02407e-008	3.25709e-009	2.31286e-009
3.5--3.6	9.68444e-009	3.06517e-009	2.18725e-009
3.6--3.7	9.33054e-009	2.9581e-009	2.10732e-009
3.7--3.8	7.39053e-009	2.56067e-009	1.66912e-009
3.8--3.9	6.01971e-009	2.31899e-009	1.3598e-009
3.9--4	5.51618e-009	2.14236e-009	1.2458e-009
4--4.1	2.92125e-009	1.57726e-009	6.59831e-010
4.1--4.2	3.50808e-009	1.65998e-009	7.92333e-010
4.2--4.3	2.66559e-009	1.37043e-009	6.0201e-010
4.3--4.4	5.79564e-010	6.38595e-010	1.30902e-010
4.4--4.5	1.85659e-009	1.10974e-009	4.19304e-010
4.5--4.6	2.50738e-009	1.27926e-009	5.66276e-010
4.6--4.7	2.35473e-009	1.20046e-009	5.31801e-010
4.7--4.8	1.81091e-009	1.06405e-009	4.08982e-010
4.8--4.9	2.78578e-009	1.30031e-009	6.29178e-010
4.9--5	5.50222e-010	5.74582e-010	1.24266e-010
cocktail
0.4--0.5	0.000333051
0.5--0.6	0.000223675
0.6--0.7	0.000175094
0.7--0.8	0.000123291
0.8--0.9	6.59524e-005
0.9--1	3.28723e-005
1--1.1	1.9475e-005
1.1--1.2	1.17988e-005
1.2--1.3	7.09244e-006
1.3--1.4	4.50818e-006
1.4--1.5	2.77076e-006
1.5--1.6	1.87369e-006
1.6--1.7	1.29765e-006
1.7--1.8	9.13882e-007
1.8--1.9	6.66488e-007
1.9--2	4.58506e-007
2--2.1	3.34908e-007
2.1--2.2	2.32686e-007
2.2--2.3	1.77946e-007
2.3--2.4	1.39513e-007
2.4--2.5	1.03351e-007
2.5--2.6	7.58874e-008
2.6--2.7	6.0943e-008
2.7--2.8	4.37087e-008
2.8--2.9	3.75817e-008
2.9--3	2.87438e-008
3--3.1	2.10072e-008
3.1--3.2	1.72685e-008
3.2--3.3	1.33306e-008
3.3--3.4	1.04639e-008
3.4--3.5	9.45737e-009
3.5--3.6	6.98406e-009
3.6--3.7	5.65884e-009
3.7--3.8	4.81777e-009
3.8--3.9	3.71642e-009
3.9--4	2.86701e-009
4--4.1	2.61908e-009
4.1--4.2	2.15683e-009
4.2--4.3	1.49936e-009
4.3--4.4	1.36117e-009
4.4--4.5	1.14429e-009
4.5--4.6	1.08464e-009
4.6--4.7	7.69648e-010
4.7--4.8	1.02371e-009
4.8--4.9	9.06597e-010
4.9--5	3.74151e-010
cocktail + direct
1--1.1	2.01464e-005
1.1--1.2	1.22697e-005
1.2--1.3	7.4239e-006
1.3--1.4	4.75167e-006
1.4--1.5	2.93734e-006
1.5--1.6	1.99778e-006
1.6--1.7	1.39683e-006
1.7--1.8	9.90095e-007
1.8--1.9	7.26316e-007
1.9--2	5.03131e-007
2--2.1	3.70228e-007
2.1--2.2	2.59559e-007
2.2--2.3	2.00735e-007
2.3--2.4	1.58935e-007
2.4--2.5	1.18259e-007
2.5--2.6	8.75225e-008
2.6--2.7	7.11466e-008
2.7--2.8	5.17709e-008
2.8--2.9	4.4604e-008
2.9--3	3.45409e-008
3--3.1	2.5582e-008
3.1--3.2	2.12386e-008
3.2--3.3	1.64446e-008
3.3--3.4	1.30754e-008
3.4--3.5	1.19842e-008
3.5--3.6	8.89247e-009
3.6--3.7	7.34679e-009
3.7--3.8	6.3063e-009
3.8--3.9	4.90292e-009
3.9--4	3.82822e-009
4--4.1	3.54372e-009
4.1--4.2	2.99183e-009
4.2--4.3	2.08358e-009
4.3--4.4	1.91672e-009
4.4--4.5	1.63566e-009
4.5--4.6	1.5736e-009
4.6--4.7	1.12364e-009
4.7--4.8	1.52525e-009
4.8--4.9	1.37168e-009
4.9--5	5.68427e-010
200-300
data
0--0.1	0	0	0
0.1--0.2	0	0	0
0.2--0.3	0	0	0
0.3--0.4	-0.000137085	9.25365e-005	4.32493e-005
0.4--0.5	3.86365e-006	6.16385e-006	1.59935e-006
0.5--0.6	5.88016e-006	1.85433e-006	1.81389e-006
0.6--0.7	4.80689e-006	7.82012e-007	1.44085e-006
0.7--0.8	2.43858e-006	3.54143e-007	7.30941e-007
0.8--0.9	1.86223e-006	2.05726e-007	5.55803e-007
0.9--1	9.63455e-007	1.07574e-007	2.87522e-007
1--1.1	7.18022e-007	6.6721e-008	1.62541e-007
1.1--1.2	5.15138e-007	4.43587e-008	1.16557e-007
1.2--1.3	2.71722e-007	2.70612e-008	6.14895e-008
1.3--1.4	2.65759e-007	2.15605e-008	6.00827e-008
1.4--1.5	1.56635e-007	1.42316e-008	3.54022e-008
1.5--1.6	9.52522e-008	9.66913e-009	2.15301e-008
1.6--1.7	8.5805e-008	7.96228e-009	1.93876e-008
1.7--1.8	6.18591e-008	6.12992e-009	1.39748e-008
1.8--1.9	4.24742e-008	4.70542e-009	9.59689e-009
1.9--2	2.56094e-008	3.32558e-009	5.78641e-009
2--2.1	1.95629e-008	2.67109e-009	4.41921e-009
2.1--2.2	1.33234e-008	2.13116e-009	3.01027e-009
2.2--2.3	9.62734e-009	1.67746e-009	2.17462e-009
2.3--2.4	5.71947e-009	1.24715e-009	1.29256e-009
2.4--2.5	6.32023e-009	1.22066e-009	1.42771e-009
2.5--2.6	3.54281e-009	8.80582e-010	8.00554e-010
2.6--2.7	4.40244e-009	9.40707e-010	9.94465e-010
2.7--2.8	3.45573e-009	7.96329e-010	7.80619e-010
2.8--2.9	2.0611e-009	6.07526e-010	4.65837e-010
2.9--3	1.11467e-009	4.21464e-010	2.51881e-010
3--3.1	1.55365e-009	4.7763e-010	3.50983e-010
3.1--3.2	1.35093e-009	4.16729e-010	3.05109e-010
3.2--3.3	3.32444e-010	2.07314e-010	7.50963e-011
3.3--3.4	8.07471e-010	3.14853e-010	1.82433e-010
3.4--3.5	9.44709e-010	3.28009e-010	2.13369e-010
3.5--3.6	5.26099e-010	2.34784e-010	1.1885e-010
3.6--3.7	1.69056e-010	1.27773e-010	3.81896e-011
3.7--3.8	2.61031e-010	1.63056e-010	5.89633e-011
3.8--3.9	4.1101e-010	1.91045e-010	9.2828e-011
3.9--4	-6.36938e-013	0	1.4472e-013
4--4.1	3.07501e-010	1.54189e-010	6.94468e-011
4.1--4.2	7.60343e-011	7.61686e-011	1.71718e-011
4.2--4.3	1.37599e-010	1.069e-010	3.10858e-011
4.3--4.4	2.13049e-010	1.23286e-010	4.81157e-011
4.4--4.5	6.41399e-011	7.2449e-011	1.44995e-011
4.5--4.6	1.92978e-010	1.11488e-010	4.35827e-011
4.6--4.7	5.7285e-011	6.51995e-011	1.29498e-011
4.7--4.8	1.8276e-010	1.05633e-010	4.1275e-011
4.8--4.9	5.02696e-011	5.79078e-011	1.13637e-011
4.9--5	1.16516e-010	8.536e-011	2.63144e-011
cocktail
0.3--0.4	2.07867e-005
0.4--0.5	1.22679e-005
0.5--0.6	8.53929e-006
0.6--0.7	6.99773e-006
0.7--0.8	5.02105e-006
0.8--0.9	2.73847e-006
0.9--1	1.38706e-006
1--1.1	8.37043e-007
1.1--1.2	5.09688e-007
1.2--1.3	3.08631e-007
1.3--1.4	1.94739e-007
1.4--1.5	1.20434e-007
1.5--1.6	8.1633e-008
1.6--1.7	5.73272e-008
1.7--1.8	4.01207e-008
1.8--1.9	2.90634e-008
1.9--2	2.01069e-008
2--2.1	1.46291e-008
2.1--2.2	1.03665e-008
2.2--2.3	7.88825e-009
2.3--2.4	6.18559e-009
2.4--2.5	4.54299e-009
2.5--2.6	3.38334e-009
2.6--2.7	2.68241e-009
2.7--2.8	1.9241e-009
2.8--2.9	1.67321e-009
2.9--3	1.2932e-009
3--3.1	9.39019e-010
3.1--3.2	7.68007e-010
3.2--3.3	5.91174e-010
3.3--3.4	4.64693e-010
3.4--3.5	4.1853e-010
3.5--3.6	3.08312e-010
3.6--3.7	2.48034e-010
3.7--3.8	2.1384e-010
3.8--3.9	1.66831e-010
3.9--4	1.27905e-010
4--4.1	1.19645e-010
4.1--4.2	9.60868e-011
4.2--4.3	6.83329e-011
4.3--4.4	6.04167e-011
4.4--4.5	5.11181e-011
4.5--4.6	4.85771e-011
4.6--4.7	3.45256e-011
4.7--4.8	4.53438e-011
4.8--4.9	3.98525e-011
4.9--5	1.6644e-011
cocktail + direct
1--1.1	8.76321e-007
1.1--1.2	5.3724e-007
1.2--1.3	3.28021e-007
1.3--1.4	2.08984e-007
1.4--1.5	1.30179e-007
1.5--1.6	8.88926e-008
1.6--1.7	6.3129e-008
1.7--1.8	4.45792e-008
1.8--1.9	3.25633e-008
1.9--2	2.27175e-008
2--2.1	1.66953e-008
2.1--2.2	1.19386e-008
2.2--2.3	9.22142e-009
2.3--2.4	7.3218e-009
2.4--2.5	5.41513e-009
2.5--2.6	4.064e-009
2.6--2.7	3.27933e-009
2.7--2.8	2.39574e-009
2.8--2.9	2.08402e-009
2.9--3	1.63234e-009
3--3.1	1.20665e-009
3.1--3.2	1.00026e-009
3.2--3.3	7.73347e-010
3.3--3.4	6.17467e-010
3.4--3.5	5.66351e-010
3.5--3.6	4.19955e-010
3.6--3.7	3.4678e-010
3.7--3.8	3.0092e-010
3.8--3.9	2.36242e-010
3.9--4	1.84137e-010
4--4.1	1.73736e-010
4.1--4.2	1.44935e-010
4.2--4.3	1.0251e-010
4.3--4.4	9.29163e-011
4.4--4.5	7.9864e-011
4.5--4.6	7.71816e-011
4.6--4.7	5.52345e-011
4.7--4.8	7.46842e-011
4.8--4.9	6.70603e-011
4.9--5	2.80093e-011
300-500 x 0.1
data
0--0.2	-6.72907e-005	9.39576e-005	2.18143e-005
0.2--0.4	-4.11317e-007	7.09902e-007	1.45592e-007
0.4--0.6	4.51891e-007	1.07864e-007	1.47407e-007
0.6--0.8	2.17892e-007	2.84927e-008	7.37163e-008
0.8--1	1.03888e-007	9.46323e-009	3.53314e-008
1--1.2	4.80541e-008	4.07091e-009	1.55412e-008
1.2--1.4	2.56972e-008	2.00623e-009	8.16759e-009
1.4--1.6	1.19317e-008	9.91278e-010	3.71947e-009
1.6--1.8	6.29506e-009	5.59731e-010	1.92653e-009
1.8--2	3.27786e-009	3.32191e-010	9.9963e-010
2--2.2	1.47947e-009	1.86011e-010	3.45862e-010
2.2--2.4	1.07842e-009	1.3744e-010	2.52522e-010
2.4--2.6	5.60837e-010	8.79749e-011	1.30409e-010
2.6--2.8	3.15447e-010	6.01043e-011	7.33002e-011
2.8--3	1.64058e-010	4.13736e-011	3.81017e-011
3--3.2	1.24206e-010	3.22989e-011	2.8799e-011
3.2--3.4	6.1057e-011	2.0284e-011	1.4144e-011
3.4--3.6	6.95953e-011	2.05256e-011	1.61989e-011
3.6--3.8	2.26855e-011	1.19901e-011	5.25867e-012
3.8--4	1.12326e-011	7.78075e-012	2.60367e-012
4--4.2	2.72256e-011	1.07052e-011	6.30532e-012
4.2--4.4	2.45865e-011	9.56305e-012	5.7085e-012
4.4--4.6	1.23864e-011	6.897e-012	2.86699e-012
4.6--4.8	1.185e-011	6.4359e-012	2.74716e-012
4.8--5	5.66692e-012	4.36786e-012	1.31255e-012
cocktail
0--0.1	6.84282e-007
0.1--0.2	9.11158e-007
0.2--0.3	1.60307e-006
0.3--0.4	1.20667e-006
0.4--0.5	7.74326e-007
0.5--0.6	5.82544e-007
0.6--0.7	5.02189e-007
0.7--0.8	3.80282e-007
0.8--0.9	2.14774e-007
0.9--1	1.13117e-007
1--1.1	6.8844e-008
1.1--1.2	4.35924e-008
1.2--1.3	2.66433e-008
1.3--1.4	1.71248e-008
1.4--1.5	1.05972e-008
1.5--1.6	7.24423e-009
1.6--1.7	5.07798e-009
1.7--1.8	3.63926e-009
1.8--1.9	2.61035e-009
1.9--2	1.79635e-009
2--2.1	1.33983e-009
2.1--2.2	9.42619e-010
2.2--2.3	7.27126e-010
2.3--2.4	5.65676e-010
2.4--2.5	4.18337e-010
2.5--2.6	3.10299e-010
2.6--2.7	2.52857e-010
2.7--2.8	1.78324e-010
2.8--2.9	1.55385e-010
2.9--3	1.19053e-010
3--3.1	8.87889e-011
3.1--3.2	7.25005e-011
3.2--3.3	5.62346e-011
3.3--3.4	4.30721e-011
3.4--3.5	3.88448e-011
3.5--3.6	2.93015e-011
3.6--3.7	2.39509e-011
3.7--3.8	2.05703e-011
3.8--3.9	1.5598e-011
3.9--4	1.24018e-011
4--4.1	1.11169e-011
4.1--4.2	9.17631e-012
4.2--4.3	6.40509e-012
4.3--4.4	5.79325e-012
4.4--4.5	4.92607e-012
4.5--4.6	4.55454e-012
4.6--4.7	3.25932e-012
4.7--4.8	4.44648e-012
4.8--4.9	3.85883e-012
4.9--5	1.61703e-012
cocktail + direct
1--1.1	7.37926e-008
1.1--1.2	4.70636e-008
1.2--1.3	2.90863e-008
1.3--1.4	1.89193e-008
1.4--1.5	1.18249e-008
1.5--1.6	8.15885e-009
1.6--1.7	5.80893e-009
1.7--1.8	4.20098e-009
1.8--1.9	3.0513e-009
1.9--2	2.12526e-009
2--2.1	1.60015e-009
2.1--2.2	1.14068e-009
2.2--2.3	8.95088e-010
2.3--2.4	7.08825e-010
2.4--2.5	5.28217e-010
2.5--2.6	3.96054e-010
2.6--2.7	3.28062e-010
2.7--2.8	2.37746e-010
2.8--2.9	2.07143e-010
2.9--3	1.6178e-010
3--3.1	1.22507e-010
3.1--3.2	1.01762e-010
3.2--3.3	7.91862e-011
3.3--3.4	6.23197e-011
3.4--3.5	5.74685e-011
3.5--3.6	4.33672e-011
3.6--3.7	3.63917e-011
3.7--3.8	3.15413e-011
3.8--3.9	2.4343e-011
3.9--4	1.94864e-011
4--4.1	1.79318e-011
4.1--4.2	1.53306e-011
4.2--4.3	1.0711e-011
4.3--4.4	9.8878e-012
4.4--4.5	8.54771e-012
4.5--4.6	8.15836e-012
4.6--4.7	5.86837e-012
4.7--4.8	8.14301e-012
4.8--4.9	7.28668e-012
4.9--5	3.04892e-012
500-750 x 0.01
data
0--0.2	-9.14554e-005	3.73111e-005	5.57893e-005
0.2--0.4	2.49872e-008	1.27657e-008	9.06595e-009
0.4--0.6	1.29269e-008	3.23842e-009	5.4577e-009
0.6--0.8	9.54882e-009	1.18701e-009	3.70705e-009
0.8--1	4.62956e-009	5.72771e-010	1.72785e-009
1--1.2	2.78623e-009	3.04351e-010	9.35033e-010
1.2--1.4	1.13876e-009	1.69961e-010	3.70318e-010
1.4--1.6	7.68278e-010	1.03558e-010	2.38148e-010
1.6--1.8	4.75497e-010	6.11523e-011	1.48926e-010
1.8--2	1.61826e-010	3.37265e-011	4.97204e-011
2--2.2	1.17399e-010	2.2085e-011	2.80112e-011
2.2--2.4	9.69174e-011	1.64462e-011	2.26898e-011
2.4--2.6	4.7483e-011	1.04543e-011	1.14412e-011
2.6--2.8	3.13489e-011	6.73911e-012	7.33591e-012
2.8--3	1.76756e-011	5.03877e-012	4.13001e-012
3--3.2	7.55508e-012	2.8608e-012	1.76554e-012
3.2--3.4	5.02907e-012	2.21794e-012	1.1671e-012
3.4--3.6	4.88167e-012	1.80731e-012	1.13851e-012
3.6--3.8	1.62859e-012	1.04966e-012	3.84646e-013
3.8--4	3.45564e-012	1.36348e-012	8.04611e-013
4--4.2	1.53581e-012	8.84026e-013	3.56815e-013
4.2--4.4	1.53495e-012	7.99462e-013	3.59948e-013
4.4--4.6	1.37915e-012	7.44539e-013	3.1992e-013
4.6--4.8	-5.15771e-014	3.49076e-014	1.19675e-014
4.8--5	5.93688e-013	4.45215e-013	1.37648e-013
cocktail
0--0.1	4.76458e-008
0.1--0.2	4.34939e-008
0.2--0.3	3.70651e-008
0.3--0.4	2.94302e-008
0.4--0.5	2.24083e-008
0.5--0.6	1.97267e-008
0.6--0.7	1.96044e-008
0.7--0.8	1.65701e-008
0.8--0.9	1.04237e-008
0.9--1	5.93537e-009
1--1.1	3.89789e-009
1.1--1.2	2.63484e-009
1.2--1.3	1.72022e-009
1.3--1.4	1.15829e-009
1.4--1.5	7.5483e-010
1.5--1.6	5.38409e-010
1.6--1.7	3.91207e-010
1.7--1.8	2.9083e-010
1.8--1.9	2.15712e-010
1.9--2	1.52526e-010
2--2.1	1.15068e-010
2.1--2.2	8.15757e-011
2.2--2.3	6.47713e-011
2.3--2.4	5.17394e-011
2.4--2.5	3.85904e-011
2.5--2.6	2.93416e-011
2.6--2.7	2.38813e-011
2.7--2.8	1.75413e-011
2.8--2.9	1.4938e-011
2.9--3	1.18847e-011
3--3.1	8.78768e-012
3.1--3.2	7.46866e-012
3.2--3.3	5.79091e-012
3.3--3.4	4.54059e-012
3.4--3.5	4.1123e-012
3.5--3.6	3.05272e-012
3.6--3.7	2.54992e-012
3.7--3.8	2.14134e-012
3.8--3.9	1.69783e-012
3.9--4	1.30542e-012
4--4.1	1.19913e-012
4.1--4.2	9.98652e-013
4.2--4.3	7.43782e-013
4.3--4.4	6.35654e-013
4.4--4.5	5.46732e-013
4.5--4.6	5.13631e-013
4.6--4.7	3.64467e-013
4.7--4.8	5.33048e-013
4.8--4.9	4.37918e-013
4.9--5	1.82296e-013
cocktail + direct
1--1.1	4.29068e-009
1.1--1.2	2.91037e-009
1.2--1.3	1.91413e-009
1.3--1.4	1.30074e-009
1.4--1.5	8.52282e-010
1.5--1.6	6.11007e-010
1.6--1.7	4.49226e-010
1.7--1.8	3.35417e-010
1.8--1.9	2.50713e-010
1.9--2	1.78633e-010
2--2.1	1.35731e-010
2.1--2.2	9.72968e-011
2.2--2.3	7.81033e-011
2.3--2.4	6.31019e-011
2.4--2.5	4.73121e-011
2.5--2.6	3.61483e-011
2.6--2.7	2.98507e-011
2.7--2.8	2.22579e-011
2.8--2.9	1.90463e-011
2.9--3	1.52762e-011
3--3.1	1.1464e-011
3.1--3.2	9.79128e-012
3.2--3.3	7.61269e-012
3.3--3.4	6.06837e-012
3.4--3.5	5.59056e-012
3.5--3.6	4.16919e-012
3.6--3.7	3.53741e-012
3.7--3.8	3.01216e-012
3.8--3.9	2.39196e-012
3.9--4	1.86776e-012
4--4.1	1.74006e-012
4.1--4.2	1.48715e-012
4.2--4.3	1.08556e-012
4.3--4.4	9.60659e-013
4.4--4.5	8.342e-013
4.5--4.6	7.99685e-013
4.6--4.7	5.71562e-013
4.7--4.8	8.26461e-013
4.8--4.9	7.10004e-013
4.9--5	2.95953e-013
810-990 x 0.001
data
0--0.2	4.0871e-010	4.61527e-010	2.71783e-010
0.2--0.4	6.66688e-010	2.16361e-010	2.09314e-010
0.4--0.6	3.84733e-010	8.84737e-011	9.66562e-011
0.6--0.8	3.15227e-010	4.68745e-011	8.7796e-011
0.8--1	1.31233e-010	2.48462e-011	3.32494e-011
1--1.2	8.17186e-011	1.49854e-011	2.06147e-011
1.2--1.4	3.04878e-011	8.97778e-012	7.47613e-012
1.4--1.6	3.46829e-011	7.10858e-012	8.26344e-012
1.6--1.8	1.97843e-011	4.46183e-012	4.74271e-012
1.8--2	8.07619e-012	2.78174e-012	2.05227e-012
2--2.2	7.39427e-012	2.23535e-012	1.76096e-012
2.2--2.4	2.42346e-012	1.13959e-012	5.75228e-013
2.4--2.6	2.45589e-012	9.93362e-013	5.94093e-013
2.6--2.8	1.87475e-012	7.21701e-013	4.4617e-013
2.8--3	9.8225e-013	4.17012e-013	2.29455e-013
3--3.2	1.09332e-012	4.38126e-013	2.55102e-013
3.2--3.4	2.10925e-013	2.16399e-013	4.91493e-014
3.4--3.6	4.44282e-013	2.01125e-013	1.03593e-013
3.6--3.8	3.52586e-013	1.71917e-013	8.28997e-014
3.8--4	-9.48739e-015	5.99914e-014	2.23505e-015
4--4.2	1.27737e-013	9.57013e-014	2.96745e-014
4.2--4.4	8.50063e-014	6.60111e-014	1.98288e-014
4.4--4.6	4.26504e-014	4.43274e-014	1.03336e-014
4.6--4.8	3.40268e-014	3.86334e-014	7.91793e-015
4.8--5	3.74761e-014	3.70287e-014	8.72981e-015
cocktail
0--0.1	9.12139e-010
0.1--0.2	8.72601e-010
0.2--0.3	7.79053e-010
0.3--0.4	6.63499e-010
0.4--0.5	5.33083e-010
0.5--0.6	4.98264e-010
0.6--0.7	5.20031e-010
0.7--0.8	4.65439e-010
0.8--0.9	3.03909e-010
0.9--1	1.82773e-010
1--1.1	1.24392e-010
1.1--1.2	8.71614e-011
1.2--1.3	5.78573e-011
1.3--1.4	4.04936e-011
1.4--1.5	2.69132e-011
1.5--1.6	1.95385e-011
1.6--1.7	1.4779e-011
1.7--1.8	1.093e-011
1.8--1.9	8.18388e-012
1.9--2	6.09655e-012
2--2.1	4.63176e-012
2.1--2.2	3.45578e-012
2.2--2.3	2.66387e-012
2.3--2.4	2.26155e-012
2.4--2.5	1.68949e-012
2.5--2.6	1.31738e-012
2.6--2.7	1.09871e-012
2.7--2.8	8.10368e-013
2.8--2.9	7.03938e-013
2.9--3	5.70764e-013
3--3.1	4.39828e-013
3.1--3.2	3.7391e-013
3.2--3.3	3.01779e-013
3.3--3.4	2.50161e-013
3.4--3.5	2.27096e-013
3.5--3.6	1.73211e-013
3.6--3.7	1.4483e-013
3.7--3.8	1.26809e-013
3.8--3.9	1.0173e-013
3.9--4	8.01732e-014
4--4.1	7.59364e-014
4.1--4.2	6.53647e-014
4.2--4.3	4.68436e-014
4.3--4.4	4.34195e-014
4.4--4.5	3.77612e-014
4.5--4.6	3.61691e-014
4.6--4.7	2.63706e-014
4.7--4.8	3.61867e-014
4.8--4.9	3.26161e-014
4.9--5	1.38876e-014
cocktail + direct
1--1.1	1.43832e-010
1.1--1.2	1.00798e-010
1.2--1.3	6.74544e-011
1.3--1.4	4.75435e-011
1.4--1.5	3.17363e-011
1.5--1.6	2.31315e-011
1.6--1.7	1.76505e-011
1.7--1.8	1.31367e-011
1.8--1.9	9.91611e-012
1.9--2	7.38863e-012
2--2.1	5.65442e-012
2.1--2.2	4.23384e-012
2.2--2.3	3.3237e-012
2.3--2.4	2.8239e-012
2.4--2.5	2.12114e-012
2.5--2.6	1.65426e-012
2.6--2.7	1.39415e-012
2.7--2.8	1.0438e-012
2.8--2.9	9.07262e-013
2.9--3	7.38614e-013
3--3.1	5.72286e-013
3.1--3.2	4.8886e-013
3.2--3.3	3.91942e-013
3.3--3.4	3.25774e-013
3.4--3.5	3.00257e-013
3.5--3.6	2.28467e-013
3.6--3.7	1.93702e-013
3.7--3.8	1.69908e-013
3.8--3.9	1.36084e-013
3.9--4	1.08004e-013
4--4.1	1.02708e-013
4.1--4.2	8.95412e-014
4.2--4.3	6.37589e-014
4.3--4.4	5.95045e-014
4.4--4.5	5.19885e-014
4.5--4.6	5.03264e-014
4.6--4.7	3.66201e-014
4.7--4.8	5.07081e-014
4.8--4.9	4.60821e-014
4.9--5	1.95127e-014
Au+Au
0-100 #times 10
data
0--0.1	0	0	0
0.1--0.2	0	0	0
0.2--0.3	0	0	0
0.3--0.4	0	0	0
0.4--0.5	0.0516408	0.000893142	0.0130723
0.5--0.6	0.0298073	0.000380198	0.00754497
0.6--0.7	0.00953428	0.000161576	0.00345832
0.7--0.8	0.0056793	0.000136053	0.00206005
0.8--0.9	0.00437898	4.92068e-005	0.000892681
0.9--1	0.00248111	2.11133e-005	0.000505784
1--1.1	0.00151374	1.17286e-005	0.000308581
1.1--1.2	0.000930679	7.1332e-006	0.000189722
1.2--1.3	0.000586414	4.70102e-006	0.000119542
1.3--1.4	0.000379798	3.20736e-006	7.74231e-005
1.4--1.5	0.000255332	2.37562e-006	5.20502e-005
1.5--1.6	0.000173425	1.80868e-006	3.53531e-005
1.6--1.7	0.000120693	1.3879e-006	2.46037e-005
1.7--1.8	8.44642e-005	1.0797e-006	1.72183e-005
1.8--1.9	5.7685e-005	8.19518e-007	1.17593e-005
1.9--2	4.07866e-005	6.44795e-007	8.31447e-006
2--2.1	3.0106e-005	5.20861e-007	6.13719e-006
2.1--2.2	2.13506e-005	4.11774e-007	4.35237e-006
2.2--2.3	1.49416e-005	3.26658e-007	3.0459e-006
2.3--2.4	1.11917e-005	2.6974e-007	2.28147e-006
2.4--2.5	8.01506e-006	2.18346e-007	1.63389e-006
2.5--2.6	6.17736e-006	1.84934e-007	1.25927e-006
2.6--2.7	4.6647e-006	1.54655e-007	9.50912e-007
2.7--2.8	3.53982e-006	1.29558e-007	7.21603e-007
2.8--2.9	2.54882e-006	1.06365e-007	5.19584e-007
2.9--3	2.08187e-006	9.29924e-008	4.24396e-007
3--3.1	1.70248e-006	8.15253e-008	3.47055e-007
3.1--3.2	1.16717e-006	6.61206e-008	2.37932e-007
3.2--3.3	9.76327e-007	5.89646e-008	1.99027e-007
3.3--3.4	8.03467e-007	5.20072e-008	1.63789e-007
3.4--3.5	6.39634e-007	4.54211e-008	1.30391e-007
3.5--3.6	4.75585e-007	3.80876e-008	9.69494e-008
3.6--3.7	4.60185e-007	3.68934e-008	9.38101e-008
3.7--3.8	3.05742e-007	2.93319e-008	6.23264e-008
3.8--3.9	2.53813e-007	2.62524e-008	5.17404e-008
3.9--4	2.0538e-007	2.31213e-008	4.18673e-008
4--4.1	1.73507e-007	2.08094e-008	3.537e-008
4.1--4.2	1.51857e-007	1.92238e-008	3.09565e-008
4.2--4.3	1.17709e-007	1.68032e-008	2.39952e-008
4.3--4.4	1.02818e-007	1.52552e-008	2.09596e-008
4.4--4.5	7.37781e-008	1.27957e-008	1.50399e-008
4.5--4.6	6.5936e-008	1.19413e-008	1.34412e-008
4.6--4.7	5.9478e-008	1.11719e-008	1.21248e-008
4.7--4.8	5.40081e-008	1.04941e-008	1.10097e-008
4.8--4.9	5.16045e-008	1.0055e-008	1.05197e-008
4.9--5	4.06419e-008	8.79661e-009	8.28496e-009
cocktail
0.4--0.5	0.0477639
0.5--0.6	0.0268033
0.6--0.7	0.00850131
0.7--0.8	0.00451976
0.8--0.9	0.00388325
0.9--1	0.00216712
1--1.1	0.00136199
1.1--1.2	0.000813411
1.2--1.3	0.000505571
1.3--1.4	0.000328464
1.4--1.5	0.000221528
1.5--1.6	0.00014728
1.6--1.7	0.00010264
1.7--1.8	7.30701e-005
1.8--1.9	5.0733e-005
1.9--2	3.51591e-005
2--2.1	2.54498e-005
2.1--2.2	1.85977e-005
2.2--2.3	1.29049e-005
2.3--2.4	9.45229e-006
2.4--2.5	6.99785e-006
2.5--2.6	5.44951e-006
2.6--2.7	3.88641e-006
2.7--2.8	2.96774e-006
2.8--2.9	2.1695e-006
2.9--3	1.712e-006
3--3.1	1.37418e-006
3.1--3.2	9.67158e-007
3.2--3.3	8.40137e-007
3.3--3.4	6.67519e-007
3.4--3.5	4.84979e-007
3.5--3.6	4.15345e-007
3.6--3.7	3.5497e-007
3.7--3.8	2.39458e-007
3.8--3.9	1.83335e-007
3.9--4	1.46631e-007
4--4.1	1.16857e-007
4.1--4.2	1.05927e-007
4.2--4.3	8.57489e-008
4.3--4.4	7.43555e-008
4.4--4.5	4.75233e-008
4.5--4.6	4.7743e-008
4.6--4.7	4.37319e-008
4.7--4.8	3.12131e-008
4.8--4.9	3.65186e-008
4.9--5	2.40008e-008
cocktail + direct
1--1.1	0.00154536
1.1--1.2	0.000931382
1.2--1.3	0.000580213
1.3--1.4	0.000378327
1.4--1.5	0.000255498
1.5--1.6	0.000170172
1.6--1.7	0.000117778
1.7--1.8	8.35878e-005
1.8--1.9	5.78555e-005
1.9--2	4.01351e-005
2--2.1	2.89921e-005
2.1--2.2	2.11171e-005
2.2--2.3	1.46425e-005
2.3--2.4	1.07746e-005
2.4--2.5	7.94569e-006
2.5--2.6	6.18145e-006
2.6--2.7	4.44023e-006
2.7--2.8	3.40744e-006
2.8--2.9	2.50445e-006
2.9--3	1.98719e-006
3--3.1	1.60098e-006
3.1--3.2	1.13529e-006
3.2--3.3	9.95167e-007
3.3--3.4	7.97993e-007
3.4--3.5	5.82529e-007
3.5--3.6	5.04897e-007
3.6--3.7	4.41956e-007
3.7--3.8	3.01828e-007
3.8--3.9	2.32539e-007
3.9--4	1.88503e-007
4--4.1	1.54573e-007
4.1--4.2	1.42126e-007
4.2--4.3	1.1619e-007
4.3--4.4	1.02513e-007
4.4--4.5	6.70602e-008
4.5--4.6	6.87799e-008
4.6--4.7	6.40434e-008
4.7--4.8	4.77079e-008
4.8--4.9	5.46167e-008
4.9--5	3.82427e-008
100-200 #times 10
data
0--0.4	0	0	0
0.4--0.8	0.000746273	0.00012557	0.000168264
0.8--0.9	0.000196092	3.87249e-005	4.14637e-005
0.9--1	9.87149e-005	2.06514e-005	2.07447e-005
1--1.1	7.63357e-005	1.03488e-005	1.57289e-005
1.1--1.2	4.3373e-005	6.10008e-006	8.90804e-006
1.2--1.3	3.38073e-005	3.82234e-006	6.9163e-006
1.3--1.4	1.78348e-005	2.50594e-006	3.64888e-006
1.4--1.5	1.38826e-005	1.62205e-006	2.83537e-006
1.5--1.6	8.815e-006	1.10061e-006	1.79963e-006
1.6--1.7	7.09731e-006	8.25751e-007	1.44812e-006
1.7--1.8	4.12492e-006	5.70944e-007	8.41576e-007
1.8--1.9	3.00531e-006	4.2867e-007	6.13007e-007
1.9--2	2.07208e-006	3.28051e-007	4.22622e-007
2--2.2	8.94591e-007	1.42404e-007	1.82475e-007
2.2--2.4	7.11793e-007	9.19156e-008	1.45129e-007
2.4--2.6	3.53795e-007	5.59035e-008	7.21318e-008
2.6--2.8	1.42517e-007	3.4056e-008	2.90577e-008
2.8--3	1.31202e-007	2.5679e-008	2.67476e-008
3--3.5	6.03358e-008	8.59233e-009	1.22999e-008
3.5--4	2.26864e-008	4.30432e-009	4.62473e-009
4--4.5	1.01032e-008	2.46162e-009	2.05958e-009
4.5--5	5.16176e-009	1.56006e-009	1.05224e-009
cocktail
0.4--0.5	0.000930556
0.5--0.6	0.000601963
0.6--0.7	0.000203164
0.7--0.8	0.000117609
0.8--0.9	8.83196e-005
0.9--1	5.93765e-005
1--1.1	4.08964e-005
1.1--1.2	2.23111e-005
1.2--1.3	1.39466e-005
1.3--1.4	8.78147e-006
1.4--1.5	6.80815e-006
1.5--1.6	5.48744e-006
1.6--1.7	2.57591e-006
1.7--1.8	2.0335e-006
1.8--1.9	1.57048e-006
1.9--2	1.00471e-006
2--2.1	7.15185e-007
2.1--2.2	5.55344e-007
2.2--2.3	4.25488e-007
2.3--2.4	3.29086e-007
2.4--2.5	2.48893e-007
2.5--2.6	1.68355e-007
2.6--2.7	1.08906e-007
2.7--2.8	8.91019e-008
2.8--2.9	7.92077e-008
2.9--3	5.57752e-008
3--3.1	5.16122e-008
3.1--3.2	3.04933e-008
3.2--3.3	2.49587e-008
3.3--3.4	2.42825e-008
3.4--3.5	1.52919e-008
3.5--3.6	1.3254e-008
3.6--3.7	1.53726e-008
3.7--3.8	7.80994e-009
3.8--3.9	5.69213e-009
3.9--4	4.57313e-009
4--4.1	3.59412e-009
4.1--4.2	3.65013e-009
4.2--4.3	3.1713e-009
4.3--4.4	2.48327e-009
4.4--4.5	1.85331e-009
4.5--4.6	1.50033e-009
4.6--4.7	1.67937e-009
4.7--4.8	1.16661e-009
4.8--4.9	1.14356e-009
4.9--5	8.71092e-010
cocktail + direct
1--1.1	6.65218e-005
1.1--1.2	3.87975e-005
1.2--1.3	2.43778e-005
1.3--1.4	1.57499e-005
1.4--1.5	1.15554e-005
1.5--1.6	8.68655e-006
1.6--1.7	4.69143e-006
1.7--1.8	3.50335e-006
1.8--1.9	2.56584e-006
1.9--2	1.70012e-006
2--2.1	1.21022e-006
2.1--2.2	9.07438e-007
2.2--2.3	6.68314e-007
2.3--2.4	5.13883e-007
2.4--2.5	3.81354e-007
2.5--2.6	2.70643e-007
2.6--2.7	1.86303e-007
2.7--2.8	1.5055e-007
2.8--2.9	1.26017e-007
2.9--3	9.42339e-008
3--3.1	8.33068e-008
3.1--3.2	5.39901e-008
3.2--3.3	4.66242e-008
3.3--3.4	4.25163e-008
3.4--3.5	2.89246e-008
3.5--3.6	2.57688e-008
3.6--3.7	2.75288e-008
3.7--3.8	1.65261e-008
3.8--3.9	1.25685e-008
3.9--4	1.04248e-008
4--4.1	8.86496e-009
4.1--4.2	8.70886e-009
4.2--4.3	7.42541e-009
4.3--4.4	6.41831e-009
4.4--4.5	4.58359e-009
4.5--4.6	4.44023e-009
4.6--4.7	4.51791e-009
4.7--4.8	3.47177e-009
4.8--4.9	3.67276e-009
4.9--5	2.8614e-009
200-300
data
0--0.4	0	0	0
0.4--0.6	0.000137475	2.96389e-005	6.12683e-005
0.6--0.7	5.74375e-005	1.5194e-005	1.41561e-005
0.7--0.8	1.79877e-005	7.01971e-006	4.01845e-006
0.8--0.9	1.59177e-005	4.07773e-006	3.53391e-006
0.9--1	9.8656e-006	2.30535e-006	2.18163e-006
1--1.1	4.4776e-006	1.27055e-006	9.41601e-007
1.1--1.2	3.87593e-006	8.27021e-007	8.15733e-007
1.2--1.3	1.96107e-006	4.81992e-007	4.10575e-007
1.3--1.4	1.2021e-006	3.35648e-007	2.49447e-007
1.4--1.5	8.16554e-007	2.1263e-007	1.69594e-007
1.5--1.6	4.45405e-007	1.41792e-007	9.17882e-008
1.6--1.8	2.30516e-007	5.83869e-008	4.80197e-008
1.8--2.1	8.14393e-008	2.08813e-008	1.67456e-008
2.1--2.4	3.91327e-008	9.26526e-009	8.08875e-009
2.4--2.7	2.83777e-008	4.77516e-009	5.81089e-009
2.7--3	6.80959e-009	2.37524e-009	1.39073e-009
3--3.5	2.58106e-009	8.25722e-010	5.26328e-010
3.5--4	5.11033e-010	3.48716e-010	1.04241e-010
4--5	1.43481e-010	8.14199e-011	2.9317e-011
cocktail
0.3--0.4	6.23228e-005
0.4--0.5	3.67098e-005
0.5--0.6	2.46315e-005
0.6--0.7	8.06983e-006
0.7--0.8	4.83462e-006
0.8--0.9	4.37432e-006
0.9--1	2.56716e-006
1--1.1	1.48411e-006
1.1--1.2	1.03208e-006
1.2--1.3	6.16744e-007
1.3--1.4	4.03631e-007
1.4--1.5	3.10135e-007
1.5--1.6	1.7949e-007
1.6--1.7	1.5355e-007
1.7--1.8	9.81067e-008
1.8--1.9	6.83997e-008
1.9--2	5.14713e-008
2--2.1	3.47889e-008
2.1--2.2	2.52253e-008
2.2--2.3	1.84028e-008
2.3--2.4	1.39465e-008
2.4--2.5	1.11905e-008
2.5--2.6	6.91499e-009
2.6--2.7	5.39502e-009
2.7--2.8	4.74523e-009
2.8--2.9	3.10369e-009
2.9--3	3.09532e-009
3--3.1	1.86064e-009
3.1--3.2	1.47978e-009
3.2--3.3	1.32143e-009
3.3--3.4	9.72963e-010
3.4--3.5	6.45119e-010
3.5--3.6	6.09742e-010
3.6--3.7	5.23769e-010
3.7--3.8	3.73767e-010
3.8--3.9	2.38697e-010
3.9--4	1.85527e-010
4--4.1	2.06422e-010
4.1--4.2	1.33381e-010
4.2--4.3	1.40376e-010
4.3--4.4	9.99271e-011
4.4--4.5	8.12364e-011
4.5--4.6	7.34148e-011
4.6--4.7	7.01406e-011
4.7--4.8	4.04577e-011
4.8--4.9	5.61166e-011
4.9--5	2.93691e-011
cocktail + direct
1--1.1	2.98322e-006
1.1--1.2	1.99655e-006
1.2--1.3	1.22698e-006
1.3--1.4	8.11286e-007
1.4--1.5	5.87852e-007
1.5--1.6	3.6664e-007
1.6--1.7	2.77309e-007
1.7--1.8	1.84094e-007
1.8--1.9	1.26629e-007
1.9--2	9.2153e-008
2--2.1	6.37488e-008
2.1--2.2	4.5823e-008
2.2--2.3	3.26083e-008
2.3--2.4	2.47573e-008
2.4--2.5	1.89396e-008
2.5--2.6	1.2899e-008
2.6--2.7	9.92279e-009
2.7--2.8	8.34001e-009
2.8--2.9	5.84209e-009
2.9--3	5.34518e-009
3--3.1	3.7148e-009
3.1--3.2	2.85437e-009
3.2--3.3	2.58887e-009
3.3--3.4	2.03965e-009
3.4--3.5	1.44264e-009
3.5--3.6	1.34187e-009
3.6--3.7	1.23492e-009
3.7--3.8	8.83668e-010
3.8--3.9	6.4097e-010
3.9--4	5.27854e-010
4--4.1	5.1477e-010
4.1--4.2	4.29321e-010
4.2--4.3	3.89245e-010
4.3--4.4	3.3013e-010
4.4--4.5	2.4096e-010
4.5--4.6	2.45401e-010
4.6--4.7	2.36197e-010
4.7--4.8	1.75311e-010
4.8--4.9	2.04077e-010
4.9--5	1.45804e-010
300-500 #times 10^{-1}
data
0--0.2	0	0	0
0.2--0.4	2.69891e-005	1.14395e-005	1.22946e-005
0.4--0.6	1.17653e-005	2.25447e-006	6.55527e-006
0.6--0.8	2.30439e-006	7.0167e-007	9.76463e-007
0.8--1	7.2239e-007	2.55358e-007	2.42309e-007
1--1.2	3.3446e-007	1.08652e-007	9.32143e-008
1.2--1.4	2.13882e-007	4.95633e-008	4.9737e-008
1.4--1.7	4.92097e-008	1.49053e-008	1.15407e-008
1.7--2	1.88558e-008	5.30094e-009	4.30002e-009
2--2.5	5.12916e-009	1.21486e-009	1.09812e-009
2.5--3.5	3.10964e-010	1.28172e-010	6.57702e-011
3.5--5	1.68518e-011	1.08153e-011	3.55047e-012
cocktail
0--0.1	2.25428e-006
0.1--0.2	2.60435e-006
0.2--0.3	4.83225e-006
0.3--0.4	3.64964e-006
0.4--0.5	2.5113e-006
0.5--0.6	1.55804e-006
0.6--0.7	5.71585e-007
0.7--0.8	3.5786e-007
0.8--0.9	3.00816e-007
0.9--1	1.96934e-007
1--1.1	1.30916e-007
1.1--1.2	6.95967e-008
1.2--1.3	5.5731e-008
1.3--1.4	3.84189e-008
1.4--1.5	2.52138e-008
1.5--1.6	1.59244e-008
1.6--1.7	1.31248e-008
1.7--1.8	8.18329e-009
1.8--1.9	6.30828e-009
1.9--2	4.52612e-009
2--2.1	3.18409e-009
2.1--2.2	2.29574e-009
2.2--2.3	1.58836e-009
2.3--2.4	1.33766e-009
2.4--2.5	1.24878e-009
2.5--2.6	6.85966e-010
2.6--2.7	5.81348e-010
2.7--2.8	3.9284e-010
2.8--2.9	2.70805e-010
2.9--3	2.0567e-010
3--3.1	1.99734e-010
3.1--3.2	1.15814e-010
3.2--3.3	1.15024e-010
3.3--3.4	1.0015e-010
3.4--3.5	6.38882e-011
3.5--3.6	8.47349e-011
3.6--3.7	6.33713e-011
3.7--3.8	2.88447e-011
3.8--3.9	2.73502e-011
3.9--4	2.6164e-011
4--4.1	1.74338e-011
4.1--4.2	1.46571e-011
4.2--4.3	1.04464e-011
4.3--4.4	8.48429e-012
4.4--4.5	6.60801e-012
4.5--4.6	6.6215e-012
4.6--4.7	6.4536e-012
4.7--4.8	4.69388e-012
4.8--4.9	5.25165e-012
4.9--5	3.44383e-012
cocktail + direct
1--1.1	3.19785e-007
1.1--1.2	1.91108e-007
1.2--1.3	1.32613e-007
1.3--1.4	8.97785e-008
1.4--1.5	6.02028e-008
1.5--1.6	3.9503e-008
1.6--1.7	2.8717e-008
1.7--1.8	1.90166e-008
1.8--1.9	1.36445e-008
1.9--2	9.65151e-009
2--2.1	6.83269e-009
2.1--2.2	4.89081e-009
2.2--2.3	3.37808e-009
2.3--2.4	2.69969e-009
2.4--2.5	2.22507e-009
2.5--2.6	1.43987e-009
2.6--2.7	1.15179e-009
2.7--2.8	8.45739e-010
2.8--2.9	6.1581e-010
2.9--3	4.89125e-010
3--3.1	4.33335e-010
3.1--3.2	2.88995e-010
3.2--3.3	2.74706e-010
3.3--3.4	2.3454e-010
3.4--3.5	1.64366e-010
3.5--3.6	1.76974e-010
3.6--3.7	1.52967e-010
3.7--3.8	9.30861e-011
3.8--3.9	7.80317e-011
3.9--4	6.9293e-011
4--4.1	5.62819e-011
4.1--4.2	5.19419e-011
4.2--4.3	4.18008e-011
4.3--4.4	3.7487e-011
4.4--4.5	2.67312e-011
4.5--4.6	2.82897e-011
4.6--4.7	2.73747e-011
4.7--4.8	2.16838e-011
4.8--4.9	2.38928e-011
4.9--5	1.81131e-011
500-750 #times 10^{-2}
data
0--0.2	3.02389e-006	1.85444e-006	1.21537e-006
0.2--0.5	9.40125e-007	1.68585e-007	4.1786e-007
0.5--0.8	1.84035e-007	3.66018e-008	1.05014e-007
0.8--1.1	1.7347e-008	1.27122e-008	9.01346e-009
1.1--1.4	5.06123e-009	4.77408e-009	2.24363e-009
1.4--1.8	2.23514e-009	1.41202e-009	8.25387e-010
1.8--2.3	6.11046e-010	3.33839e-010	1.57667e-010
2.3--2.8	9.90931e-011	9.06589e-011	2.34354e-011
2.8--3.5	2.48832e-011	1.83244e-011	6.0289e-012
3.5--4	1.07831e-011	7.82525e-012	2.25767e-012
4--5	-5.63443e-013	1.5433e-012	1.17128e-013
cocktail
0--0.1	1.52604e-007
0.1--0.2	1.43355e-007
0.2--0.3	1.17587e-007
0.3--0.4	9.70878e-008
0.4--0.5	7.44645e-008
0.5--0.6	5.66473e-008
0.6--0.7	2.54058e-008
0.7--0.8	1.52479e-008
0.8--0.9	1.71747e-008
0.9--1	1.13091e-008
1--1.1	7.96117e-009
1.1--1.2	5.48335e-009
1.2--1.3	3.67792e-009
1.3--1.4	2.61432e-009
1.4--1.5	1.78636e-009
1.5--1.6	1.33422e-009
1.6--1.7	1.02669e-009
1.7--1.8	7.63072e-010
1.8--1.9	5.4698e-010
1.9--2	3.95188e-010
2--2.1	2.97207e-010
2.1--2.2	2.06906e-010
2.2--2.3	1.61917e-010
2.3--2.4	1.28144e-010
2.4--2.5	8.57799e-011
2.5--2.6	7.43183e-011
2.6--2.7	4.86774e-011
2.7--2.8	4.72403e-011
2.8--2.9	2.73892e-011
2.9--3	2.4513e-011
3--3.1	2.30874e-011
3.1--3.2	1.50165e-011
3.2--3.3	1.52492e-011
3.3--3.4	9.94359e-012
3.4--3.5	7.49738e-012
3.5--3.6	6.02339e-012
3.6--3.7	5.38056e-012
3.7--3.8	3.58502e-012
3.8--3.9	2.7768e-012
3.9--4	2.25018e-012
4--4.1	1.8147e-012
4.1--4.2	1.63019e-012
4.2--4.3	1.6385e-012
4.3--4.4	1.06744e-012
4.4--4.5	7.98105e-013
4.5--4.6	1.42572e-012
4.6--4.7	7.0438e-013
4.7--4.8	5.89128e-013
4.8--4.9	5.83743e-013
4.9--5	4.06671e-013
cocktail + direct
1--1.1	2.29527e-008
1.1--1.2	1.51283e-008
1.2--1.3	9.78045e-009
1.3--1.4	6.691e-009
1.4--1.5	4.56362e-009
1.5--1.6	3.20577e-009
1.6--1.7	2.26432e-009
1.7--1.8	1.62297e-009
1.8--1.9	1.12929e-009
1.9--2	8.02017e-010
2--2.1	5.86815e-010
2.1--2.2	4.1289e-010
2.2--2.3	3.03976e-010
2.3--2.4	2.36255e-010
2.4--2.5	1.63273e-010
2.5--2.6	1.3416e-010
2.6--2.7	9.39565e-011
2.7--2.8	8.31892e-011
2.8--2.9	5.47741e-011
2.9--3	4.70123e-011
3--3.1	4.16296e-011
3.1--3.2	2.87628e-011
3.2--3.3	2.7924e-011
3.3--3.4	2.06108e-011
3.4--3.5	1.54728e-011
3.5--3.6	1.33449e-011
3.6--3.7	1.24923e-011
3.7--3.8	8.68419e-012
3.8--3.9	6.79966e-012
3.9--4	5.67355e-012
4--4.1	4.89827e-012
4.1--4.2	4.58967e-012
4.2--4.3	4.12726e-012
4.3--4.4	3.36953e-012
4.4--4.5	2.39539e-012
4.5--4.6	3.14564e-012
4.6--4.7	2.36499e-012
4.7--4.8	1.9377e-012
4.8--4.9	2.06339e-012
4.9--5	1.57105e-012
810-990 #times 10^{-3}
data
0--0.3	1.87817e-008	8.62201e-009	6.44773e-009
0.3--0.6	7.13995e-009	2.70765e-009	3.4221e-009
0.6--1	1.36052e-009	7.79128e-010	7.86922e-010
1--1.8	1.29312e-010	1.07318e-010	6.00201e-011
1.8--2.6	4.44071e-012 upper limit
2.6--3.6	4.19276e-013 upper limit
3.6--5		3.11577e-014 upper limit
cocktail
0--0.1	2.97849e-009
0.1--0.2	3.06579e-009
0.2--0.3	2.76284e-009
0.3--0.4	2.09406e-009
0.4--0.5	1.81985e-009
0.5--0.6	1.40819e-009
0.6--0.7	6.80493e-010
0.7--0.8	4.60905e-010
0.8--0.9	5.16285e-010
0.9--1	3.25477e-010
1--1.1	2.58584e-010
1.1--1.2	1.79992e-010
1.2--1.3	1.15028e-010
1.3--1.4	9.30262e-011
1.4--1.5	6.30329e-011
1.5--1.6	5.18319e-011
1.6--1.7	3.97351e-011
1.7--1.8	2.92769e-011
1.8--1.9	2.14555e-011
1.9--2	1.46204e-011
2--2.1	1.22936e-011
2.1--2.2	8.24705e-012
2.2--2.3	6.52023e-012
2.3--2.4	5.46009e-012
2.4--2.5	3.83433e-012
2.5--2.6	3.18875e-012
2.6--2.7	2.35715e-012
2.7--2.8	1.78957e-012
2.8--2.9	1.30726e-012
2.9--3	1.19372e-012
3--3.1	9.39222e-013
3.1--3.2	7.58717e-013
3.2--3.3	6.86911e-013
3.3--3.4	6.34583e-013
3.4--3.5	4.01652e-013
3.5--3.6	3.35854e-013
3.6--3.7	2.86497e-013
3.7--3.8	2.28248e-013
3.8--3.9	1.57585e-013
3.9--4	1.50671e-013
4--4.1	1.03944e-013
4.1--4.2	1.0154e-013
4.2--4.3	8.27191e-014
4.3--4.4	7.46519e-014
4.4--4.5	5.0566e-014
4.5--4.6	5.35502e-014
4.6--4.7	4.75616e-014
4.7--4.8	3.54605e-014
4.8--4.9	4.22447e-014
4.9--5	3.45654e-014
cocktail + direct
1--1.1	1.00054e-009
1.1--1.2	6.57338e-010
1.2--1.3	4.17052e-010
1.3--1.4	2.94788e-010
1.4--1.5	2.00484e-010
1.5--1.6	1.44458e-010
1.6--1.7	1.00987e-010
1.7--1.8	7.18346e-011
1.8--1.9	5.02749e-011
1.9--2	3.4755e-011
2--2.1	2.66268e-011
2.1--2.2	1.84415e-011
2.2--2.3	1.3551e-011
2.3--2.4	1.08107e-011
2.4--2.5	7.66957e-012
2.5--2.6	6.1504e-012
2.6--2.7	4.59808e-012
2.7--2.8	3.56874e-012
2.8--2.9	2.66258e-012
2.9--3	2.30724e-012
3--3.1	1.8569e-012
3.1--3.2	1.43904e-012
3.2--3.3	1.31421e-012
3.3--3.4	1.16252e-012
3.4--3.5	7.9637e-013
3.5--3.6	6.98206e-013
3.6--3.7	6.38466e-013
3.7--3.8	4.80614e-013
3.8--3.9	3.56683e-013
3.9--4	3.20099e-013
4--4.1	2.56555e-013
4.1--4.2	2.4801e-013
4.2--4.3	2.05892e-013
4.3--4.4	1.88586e-013
4.4--4.5	1.29618e-013
4.5--4.6	1.38672e-013
4.6--4.7	1.29748e-013
4.7--4.8	1.02204e-013
4.8--4.9	1.15475e-013
4.9--5	9.21925e-014
