Figure 41a: invariant mass spectrum of e+e- pairs in MB Au+Au compared to predictions from Ralf Rapp

data: as in Fig.25

sum w/o #rho vacuum
0--0.025        0.072041
0.025--0.05     0.0126861
0.05--0.075     0.00571094
0.075--0.1      0.00260758
0.1--0.125      0.000918664
0.125--0.15     0.000405552
0.15--0.175     0.000347192
0.175--0.2      0.000307511
0.2--0.225      0.000279293
0.225--0.25     0.000256436
0.25--0.275     0.000250106
0.275--0.3      0.000240894
0.3--0.325      0.000223373
0.325--0.35     0.000213367
0.35--0.375     0.000202026
0.375--0.4      0.000189344
0.4--0.425      0.000179151
0.425--0.45     0.00016346
0.45--0.475     0.000148477
0.475--0.5      0.000132924
0.5--0.525      0.000123758
0.525--0.55     0.000118662
0.55--0.575     0.000113604
0.575--0.6      0.000108845
0.6--0.625      0.000102162
0.625--0.65     8.54632e-05
0.65--0.675     7.41089e-05
0.675--0.7      7.39173e-05
0.7--0.725      7.608e-05
0.725--0.75     8.37932e-05
0.75--0.775     0.000188751
0.775--0.8      0.000449144
0.8--0.825      8.2218e-05
0.825--0.85     4.76501e-05
0.85--0.875     4.05008e-05
0.875--0.9      3.68045e-05
0.9--0.925      3.46483e-05
0.925--0.95     3.32484e-05
0.95--0.975     3.33445e-05
0.975--1        5.02445e-05
1--1.025        0.000363255
1.025--1.05     0.000164349
1.05--1.075     3.09472e-05
1.075--1.1      2.45109e-05
1.1--1.125      2.22534e-05
1.125--1.15     2.06735e-05
1.15--1.175     1.94465e-05
1.175--1.2      1.82909e-05
1.2--1.225      1.72503e-05
1.225--1.25     1.62901e-05
1.25--1.275     1.54043e-05
1.275--1.3      1.45455e-05
1.3--1.325      1.37665e-05
1.325--1.35     1.30032e-05
1.35--1.375     1.23098e-05
1.375--1.4      1.16396e-05
1.4--1.425      1.10138e-05
1.425--1.45     1.04384e-05
1.45--1.475     9.86135e-06
1.475--1.5      9.34279e-06
1.5--1.525      8.84977e-06
1.525--1.55     8.37911e-06
1.55--1.575     7.91336e-06
1.575--1.6      7.48745e-06
1.6--1.625      7.08777e-06
1.625--1.65     6.72735e-06
1.65--1.675     6.3457e-06
1.675--1.7      6.02812e-06
1.7--1.725      5.69474e-06
1.725--1.75     5.38585e-06
1.75--1.775     5.10315e-06
1.775--1.8      4.83397e-06
1.8--1.825      4.57798e-06
1.825--1.85     4.32451e-06
1.85--1.875     4.10136e-06
1.875--1.9      3.88807e-06
1.9--1.925      3.6804e-06
1.925--1.95     3.47321e-06
1.95--1.975     3.29472e-06
1.975--2        3.11408e-06
2--2.025        2.93779e-06
2.025--2.05     2.78107e-06
2.05--2.075     2.6327e-06
2.075--2.1      2.49225e-06
2.1--2.125      2.35929e-06
2.125--2.15     2.23342e-06
2.15--2.175     2.11427e-06
2.175--2.2      2.00148e-06
2.2--2.225      1.8947e-06
2.225--2.25     1.79362e-06
2.25--2.275     1.69794e-06
2.275--2.3      1.60735e-06
2.3--2.325      1.5216e-06
2.325--2.35     1.44043e-06
2.35--2.375     1.36358e-06
2.375--2.4      1.29084e-06
2.4--2.425      1.22198e-06
2.425--2.45     1.15678e-06
2.45--2.475     1.09509e-06
2.475--2.5      1.03669e-06
2.5--2.525      9.81462e-07
2.525--2.55     9.29108e-07
2.55--2.575     8.79576e-07
2.575--2.6      8.32646e-07
2.6--2.625      7.88434e-07
2.625--2.65     7.4635e-07
2.65--2.675     7.06585e-07
2.675--2.7      6.69074e-07
2.7--2.725      6.33451e-07
2.725--2.75     5.99871e-07
2.75--2.775     5.68433e-07
2.775--2.8      5.39206e-07
2.8--2.825      5.11893e-07
2.825--2.85     4.87772e-07
2.85--2.875     4.68764e-07
2.875--2.9      4.59456e-07
2.9--2.925      4.73157e-07
2.925--2.95     5.53579e-07
2.95--2.975     8.56369e-07
2.975--3        1.89364e-06
3--3.025        4.86185e-06
3.025--3.05     1.13399e-05
3.05--3.075     2.05578e-05
3.075--3.1      2.74235e-05
3.1--3.125      2.61905e-05
3.125--3.15     1.80189e-05
.15--3.175     9.13678e-06
3.175--3.2      3.64393e-06
3.2--3.225      1.30031e-06
3.225--3.25     5.30891e-07
3.25--3.275     2.97544e-07
3.275--3.3      2.17979e-07
3.3--3.325      1.85318e-07
3.325--3.35     1.67392e-07
3.35--3.375     1.55248e-07
3.375--3.4      1.4578e-07
3.4--3.425      1.37759e-07
3.425--3.45     1.30636e-07
3.45--3.475     1.24545e-07
3.475--3.5      1.2047e-07
3.5--3.525      1.19553e-07
3.525--3.55     1.26546e-07
3.55--3.575     1.48331e-07
3.575--3.6      1.93726e-07
3.6--3.625      2.67399e-07
3.625--3.65     3.57414e-07
3.65--3.675     4.31457e-07
3.675--3.7      4.55993e-07
3.7--3.725      4.15505e-07
3.725--3.75     3.27351e-07
3.75--3.775     2.29876e-07
3.775--3.8      1.51316e-07
3.8--3.825      1.00549e-07
3.825--3.85     7.288e-08
3.85--3.875     5.77116e-08
3.875--3.9      4.81139e-08
3.9--3.925      4.55471e-08
3.925--3.95     4.31172e-08
3.95--3.975     4.0817e-08
3.975--4        3.86394e-08
4--4.025        3.65781e-08
4.025--4.05     3.46267e-08
4.05--4.075     3.27794e-08
4.075--4.1      3.10306e-08
4.1--4.125      2.93752e-08
4.125--4.15     2.78081e-08
4.15--4.175     2.63245e-08
4.175--4.2      2.49202e-08
4.2--4.225      2.35907e-08
4.225--4.25     2.23322e-08
4.25--4.275     2.11408e-08
4.275--4.3      2.00129e-08
4.3--4.325      1.89453e-08
4.325--4.35     1.79346e-08
4.35--4.375     1.69778e-08
4.375--4.4      1.6072e-08
4.4--4.425      1.52146e-08
4.425--4.45     1.44029e-08
4.45--4.475     1.36345e-08
4.475--4.5      1.29072e-08
4.5--4.525      1.22186e-08
4.525--4.55     1.15667e-08
4.55--4.575     1.09497e-08
4.575--4.6      1.03655e-08
4.6--4.625      9.81252e-09
4.625--4.65     9.28904e-09
4.65--4.675     8.79348e-09
4.675--4.7      8.32436e-09
4.7--4.725      7.88026e-09
4.725--4.75     7.45986e-09
4.75--4.775     7.06189e-09
4.775--4.8      6.68514e-09
4.8--4.825      6.3285e-09
4.825--4.85     5.99088e-09
4.85--4.875     5.67127e-09
4.875--4.9      5.36872e-09
4.9--4.925      5.0823e-09
4.925--4.95     4.81117e-09
4.95--4.975     4.5545e-09


sum w/ #rho vacuum
0--0.025	0.0720425
0.025--0.05	0.0126923
0.05--0.075	0.00571871
0.075--0.1	0.00261809
0.1--0.125	0.000934145
0.125--0.15	0.000428203
0.15--0.175	0.000377617
0.175--0.2	0.000338118
0.2--0.225	0.000308795
0.225--0.25	0.000282379
0.25--0.275	0.000276331
0.275--0.3	0.00026658
0.3--0.325	0.000250943
0.325--0.35	0.000248236
0.35--0.375	0.000243079
0.375--0.4	0.000236568
0.4--0.425	0.000235714
0.425--0.45	0.00022771
0.45--0.475	0.000220787
0.475--0.5	0.000212561
0.5--0.525	0.000204617
0.525--0.55	0.000199309
0.55--0.575	0.000200973
0.575--0.6	0.000202438
0.6--0.625	0.000203434
0.625--0.65	0.000199631
0.65--0.675	0.000214615
0.675--0.7	0.000239811
0.7--0.725	0.000276374
0.725--0.75	0.000320961
0.75--0.775	0.000456818
0.775--0.8	0.000824365
0.8--0.825	0.000214067
0.825--0.85	0.000124991
0.85--0.875	9.10246e-005
0.875--0.9	7.28347e-005
0.9--0.925	6.17695e-005
0.925--0.95	5.57905e-005
0.95--0.975	5.33425e-005
0.975--1	6.9628e-005
1--1.025	0.000522188
1.025--1.05	0.000203348
1.05--1.075	4.92964e-005
1.075--1.1	3.81989e-005
1.1--1.125	3.45014e-005
1.125--1.15	3.09503e-005
1.15--1.175	3.04564e-005
1.175--1.2	2.6966e-005
1.2--1.225	2.67224e-005
1.225--1.25	2.50148e-005
1.25--1.275	2.40167e-005
1.275--1.3	2.14649e-005
1.3--1.325	2.13385e-005
1.325--1.35	2.05458e-005
1.35--1.375	1.77773e-005
1.375--1.4	1.67272e-005
1.4--1.425	1.62307e-005
1.425--1.45	1.57943e-005
1.45--1.475	1.33531e-005
1.475--1.5	1.28117e-005
1.5--1.525	1.2707e-005
1.525--1.55	1.22856e-005
1.55--1.575	7.99864e-006
1.575--1.6	7.57617e-006
1.6--1.625	7.18059e-006
1.625--1.65	6.82484e-006
1.65--1.675	6.44627e-006
1.675--1.7	6.13018e-006
1.7--1.725	5.7991e-006
1.725--1.75	5.49333e-006
1.75--1.775	5.215e-006
1.775--1.8	4.94966e-006
1.8--1.825	4.69749e-006
1.825--1.85	4.44889e-006
1.85--1.875	4.23082e-006
1.875--1.9	4.02261e-006
1.9--1.925	3.8192e-006
1.925--1.95	3.61637e-006
1.95--1.975	3.44288e-006
1.975--2	3.2678e-006
2--2.025	3.0974e-006
2.025--2.05	2.94681e-006
2.05--2.075	2.80563e-006
2.075--2.1	2.67324e-006
2.1--2.125	2.54671e-006
2.125--2.15	2.42767e-006
2.15--2.175	2.31705e-006
2.175--2.2	2.21392e-006
2.2--2.225	2.1174e-006
2.225--2.25	2.02685e-006
2.25--2.275	1.94235e-006
2.275--2.3	1.86367e-006
2.3--2.325	1.79024e-006
2.325--2.35	1.72196e-006
2.35--2.375	1.65901e-006
2.375--2.4	1.60231e-006
2.4--2.425	1.55053e-006
2.425--2.45	1.50246e-006
2.45--2.475	1.46091e-006
2.475--2.5	1.42584e-006
2.5--2.525	1.39534e-006
2.525--2.55	1.37008e-006
2.55--2.575	1.35168e-006
2.575--2.6	1.34001e-006
2.6--2.625	1.33206e-006
2.625--2.65	1.32356e-006
2.65--2.675	1.32125e-006
2.675--2.7	1.32683e-006
2.7--2.725	1.34863e-006
2.725--2.75	1.38147e-006
2.75--2.775	1.42836e-006
2.775--2.8	1.49793e-006
2.8--2.825	1.58548e-006
2.825--2.85	1.70074e-006
2.85--2.875	1.85636e-006
2.875--2.9	2.0589e-006
2.9--2.925	2.35022e-006
2.925--2.95	2.75915e-006
2.95--2.975	3.3843e-006
2.975--3	4.64063e-006
3--3.025	6.74376e-006
3.025--3.05	1.10808e-005
3.05--3.075	1.72059e-005
3.075--3.1	2.42632e-005
3.1--3.125	2.56395e-005
3.125--3.15	2.29776e-005
3.15--3.175	1.48959e-005
3.175--3.2	8.61926e-006
3.2--3.225	3.95477e-006
3.225--3.25	1.9887e-006
3.25--3.275	9.43282e-007
3.275--3.3	5.50898e-007
3.3--3.325	3.80818e-007
3.325--3.35	2.87438e-007
3.35--3.375	2.40731e-007
3.375--3.4	2.08567e-007
3.4--3.425	1.85196e-007
3.425--3.45	1.70713e-007
3.45--3.475	1.59687e-007
3.475--3.5	1.51909e-007
3.5--3.525	1.48336e-007
3.525--3.55	1.4902e-007
3.55--3.575	1.57386e-007
3.575--3.6	1.75459e-007
3.6--3.625	2.24275e-007
3.625--3.65	2.94843e-007
3.65--3.675	3.91901e-007
3.675--3.7	4.21225e-007
3.7--3.725	3.96911e-007
3.725--3.75	2.88895e-007
3.75--3.775	1.924e-007
3.775--3.8	1.20473e-007
3.8--3.825	8.55835e-008
3.825--3.85	6.53232e-008
3.85--3.875	5.58541e-008
3.875--3.9	4.81139e-008
3.9--3.925	4.55471e-008
3.925--3.95	4.31172e-008
3.95--3.975	4.0817e-008
3.975--4	3.86394e-008
4--4.025	3.65781e-008
4.025--4.05	3.46267e-008
4.05--4.075	3.27794e-008
4.075--4.1	3.10306e-008
4.1--4.125	2.93752e-008
4.125--4.15	2.78081e-008
4.15--4.175	2.63245e-008
4.175--4.2	2.49202e-008
4.2--4.225	2.35907e-008
4.225--4.25	2.23322e-008
4.25--4.275	2.11408e-008
4.275--4.3	2.00129e-008
4.3--4.325	1.89453e-008
4.325--4.35	1.79346e-008
4.35--4.375	1.69778e-008
4.375--4.4	1.6072e-008
4.4--4.425	1.52146e-008
4.425--4.45	1.44029e-008
4.45--4.475	1.36345e-008
4.475--4.5	1.29072e-008
4.5--4.525	1.22186e-008
4.525--4.55	1.15667e-008
4.55--4.575	1.09497e-008
4.575--4.6	1.03655e-008
4.6--4.625	9.81252e-009
4.625--4.65	9.28904e-009
4.65--4.675	8.79348e-009
4.675--4.7	8.32436e-009
4.7--4.725	7.88026e-009
4.725--4.75	7.45986e-009
4.75--4.775	7.06189e-009
4.775--4.8	6.68514e-009
4.8--4.825	6.3285e-009
4.825--4.85	5.99088e-009
4.85--4.875	5.67127e-009
4.875--4.9	5.36872e-009
4.9--4.925	5.0823e-009
4.925--4.95	4.81117e-009
4.95--4.975	4.5545e-009
sum w/ #rho broadening
0--0.025	0.0953411
0.025--0.05	0.0130454
0.05--0.075	0.00591704
0.075--0.1	0.00274457
0.1--0.125	0.00112285
0.125--0.15	0.000617439
0.15--0.175	0.000636589
0.175--0.2	0.000528386
0.2--0.225	0.000480433
0.225--0.25	0.000405344
0.25--0.275	0.000403199
0.275--0.3	0.000374289
0.3--0.325	0.000368387
0.325--0.35	0.000368683
0.35--0.375	0.000368864
0.375--0.4	0.000361601
0.4--0.425	0.000388343
0.425--0.45	0.000388516
0.45--0.475	0.000372619
0.475--0.5	0.00038136
0.5--0.525	0.000354852
0.525--0.55	0.000340113
0.55--0.575	0.000317425
0.575--0.6	0.000305769
0.6--0.625	0.000290965
0.625--0.65	0.000275629
0.65--0.675	0.00027525
0.675--0.7	0.000276283
0.7--0.725	0.000264385
0.725--0.75	0.000281957
0.75--0.775	0.000377653
0.775--0.8	0.000593449
0.8--0.825	0.000197735
0.825--0.85	0.000125316
0.85--0.875	0.000103434
0.875--0.9	7.9339e-005
0.9--0.925	7.36827e-005
0.925--0.95	6.2009e-005
0.95--0.975	6.37889e-005
0.975--1	9.15551e-005
1--1.025	0.000460831
1.025--1.05	0.000228945
1.05--1.075	5.908e-005
1.075--1.1	4.28346e-005
1.1--1.125	3.60673e-005
1.125--1.15	3.31639e-005
1.15--1.175	2.92244e-005
1.175--1.2	2.72794e-005
1.2--1.225	2.76742e-005
1.225--1.25	2.70258e-005
1.25--1.275	2.52523e-005
1.275--1.3	2.12225e-005
1.3--1.325	2.24066e-005
1.325--1.35	2.06921e-005
1.35--1.375	1.68874e-005
1.375--1.4	1.75394e-005
1.4--1.425	1.5903e-005
1.425--1.45	1.56854e-005
1.45--1.475	1.24651e-005
1.475--1.5	1.35391e-005
1.5--1.525	1.27264e-005
1.525--1.55	1.27798e-005
1.55--1.575	7.99864e-006
1.575--1.6	7.57617e-006
1.6--1.625	7.18059e-006
1.625--1.65	6.82484e-006
1.65--1.675	6.44627e-006
1.675--1.7	6.13018e-006
1.7--1.725	5.7991e-006
1.725--1.75	5.49333e-006
1.75--1.775	5.215e-006
1.775--1.8	4.94966e-006
1.8--1.825	4.69749e-006
1.825--1.85	4.44889e-006
1.85--1.875	4.23082e-006
1.875--1.9	4.02261e-006
1.9--1.925	3.8192e-006
1.925--1.95	3.61637e-006
1.95--1.975	3.44288e-006
1.975--2	3.2678e-006
2--2.025	3.0974e-006
2.025--2.05	2.94681e-006
2.05--2.075	2.80563e-006
2.075--2.1	2.67324e-006
2.1--2.125	2.54671e-006
2.125--2.15	2.42767e-006
2.15--2.175	2.31705e-006
2.175--2.2	2.21392e-006
2.2--2.225	2.1174e-006
2.225--2.25	2.02685e-006
2.25--2.275	1.94235e-006
2.275--2.3	1.86367e-006
2.3--2.325	1.79024e-006
2.325--2.35	1.72196e-006
2.35--2.375	1.65901e-006
2.375--2.4	1.60231e-006
2.4--2.425	1.55053e-006
2.425--2.45	1.50246e-006
2.45--2.475	1.46091e-006
2.475--2.5	1.42584e-006
2.5--2.525	1.39534e-006
2.525--2.55	1.37008e-006
2.55--2.575	1.35168e-006
2.575--2.6	1.34001e-006
2.6--2.625	1.33206e-006
2.625--2.65	1.32356e-006
2.65--2.675	1.32125e-006
2.675--2.7	1.32683e-006
2.7--2.725	1.34863e-006
2.725--2.75	1.38147e-006
2.75--2.775	1.42836e-006
2.775--2.8	1.49793e-006
2.8--2.825	1.58548e-006
2.825--2.85	1.70074e-006
2.85--2.875	1.85636e-006
2.875--2.9	2.0589e-006
2.9--2.925	2.35022e-006
2.925--2.95	2.75915e-006
2.95--2.975	3.3843e-006
2.975--3	4.64063e-006
3--3.025	6.74376e-006
3.025--3.05	1.10808e-005
3.05--3.075	1.72059e-005
3.075--3.1	2.42632e-005
3.1--3.125	2.56395e-005
3.125--3.15	2.29776e-005
3.15--3.175	1.48959e-005
3.175--3.2	8.61926e-006
3.2--3.225	3.95477e-006
3.225--3.25	1.9887e-006
3.25--3.275	9.43282e-007
3.275--3.3	5.50898e-007
3.3--3.325	3.80818e-007
3.325--3.35	2.87438e-007
3.35--3.375	2.40731e-007
3.375--3.4	2.08567e-007
3.4--3.425	1.85196e-007
3.425--3.45	1.70713e-007
3.45--3.475	1.59687e-007
3.475--3.5	1.51909e-007
3.5--3.525	1.48336e-007
3.525--3.55	1.4902e-007
3.55--3.575	1.57386e-007
3.575--3.6	1.75459e-007
3.6--3.625	2.24275e-007
3.625--3.65	2.94843e-007
3.65--3.675	3.91901e-007
3.675--3.7	4.21225e-007
3.7--3.725	3.96911e-007
3.725--3.75	2.88895e-007
3.75--3.775	1.924e-007
3.775--3.8	1.20473e-007
3.8--3.825	8.55835e-008
3.825--3.85	6.53232e-008
3.85--3.875	5.58541e-008
3.875--3.9	4.81139e-008
3.9--3.925	4.55471e-008
3.925--3.95	4.31172e-008
3.95--3.975	4.0817e-008
3.975--4	3.86394e-008
4--4.025	3.65781e-008
4.025--4.05	3.46267e-008
4.05--4.075	3.27794e-008
4.075--4.1	3.10306e-008
4.1--4.125	2.93752e-008
4.125--4.15	2.78081e-008
4.15--4.175	2.63245e-008
4.175--4.2	2.49202e-008
4.2--4.225	2.35907e-008
4.225--4.25	2.23322e-008
4.25--4.275	2.11408e-008
4.275--4.3	2.00129e-008
4.3--4.325	1.89453e-008
4.325--4.35	1.79346e-008
4.35--4.375	1.69778e-008
4.375--4.4	1.6072e-008
4.4--4.425	1.52146e-008
4.425--4.45	1.44029e-008
4.45--4.475	1.36345e-008
4.475--4.5	1.29072e-008
4.5--4.525	1.22186e-008
4.525--4.55	1.15667e-008
4.55--4.575	1.09497e-008
4.575--4.6	1.03655e-008
4.6--4.625	9.81252e-009
4.625--4.65	9.28904e-009
4.65--4.675	8.79348e-009
4.675--4.7	8.32436e-009
4.7--4.725	7.88026e-009
4.725--4.75	7.45986e-009
4.75--4.775	7.06189e-009
4.775--4.8	6.68514e-009
4.8--4.825	6.3285e-009
4.825--4.85	5.99088e-009
4.85--4.875	5.67127e-009
4.875--4.9	5.36872e-009
4.9--4.925	5.0823e-009
4.925--4.95	4.81117e-009
4.95--4.975	4.5545e-009
sum/ #rho dropping)
0--0.025	0.0943198
0.025--0.05	0.0130142
0.05--0.075	0.00588787
0.075--0.1	0.00271311
0.1--0.125	0.00107475
0.125--0.15	0.000551574
0.15--0.175	0.000542068
0.175--0.2	0.000491107
0.2--0.225	0.000453713
0.225--0.25	0.000357077
0.25--0.275	0.000351005
0.275--0.3	0.00033645
0.3--0.325	0.000330424
0.325--0.35	0.000348378
0.35--0.375	0.000359422
0.375--0.4	0.000364885
0.4--0.425	0.000379016
0.425--0.45	0.000399909
0.45--0.475	0.000417878
0.475--0.5	0.000422071
0.5--0.525	0.000414874
0.525--0.55	0.000391829
0.55--0.575	0.000395062
0.575--0.6	0.000401915
0.6--0.625	0.000396682
0.625--0.65	0.000349322
0.65--0.675	0.000323148
0.675--0.7	0.000276707
0.7--0.725	0.000233681
0.725--0.75	0.000161778
0.75--0.775	0.000237008
0.775--0.8	0.000486264
0.8--0.825	0.000115423
0.825--0.85	7.39752e-005
0.85--0.875	7.52672e-005
0.875--0.9	6.94624e-005
0.9--0.925	6.1138e-005
0.925--0.95	6.45403e-005
0.95--0.975	8.79261e-005
0.975--1	0.000135503
1--1.025	0.000399424
1.025--1.05	0.000177573
1.05--1.075	4.48741e-005
1.075--1.1	3.51155e-005
1.1--1.125	3.22615e-005
1.125--1.15	3.18466e-005
1.15--1.175	3.08643e-005
1.175--1.2	2.7018e-005
1.2--1.225	2.67933e-005
1.225--1.25	2.45219e-005
1.25--1.275	2.27687e-005
1.275--1.3	2.14162e-005
1.3--1.325	2.13279e-005
1.325--1.35	2.13218e-005
1.35--1.375	1.78611e-005
1.375--1.4	1.65435e-005
1.4--1.425	1.59906e-005
1.425--1.45	1.55538e-005
1.45--1.475	1.28416e-005
1.475--1.5	1.32135e-005
1.5--1.525	1.42072e-005
1.525--1.55	1.2661e-005
1.55--1.575	7.99864e-006
1.575--1.6	7.57617e-006
1.6--1.625	7.18059e-006
1.625--1.65	6.82484e-006
1.65--1.675	6.44627e-006
1.675--1.7	6.13018e-006
1.7--1.725	5.7991e-006
1.725--1.75	5.49333e-006
1.75--1.775	5.215e-006
1.775--1.8	4.94966e-006
1.8--1.825	4.69749e-006
1.825--1.85	4.44889e-006
1.85--1.875	4.23082e-006
1.875--1.9	4.02261e-006
1.9--1.925	3.8192e-006
1.925--1.95	3.61637e-006
1.95--1.975	3.44288e-006
1.975--2	3.2678e-006
2--2.025	3.0974e-006
2.025--2.05	2.94681e-006
2.05--2.075	2.80563e-006
2.075--2.1	2.67324e-006
2.1--2.125	2.54671e-006
2.125--2.15	2.42767e-006
2.15--2.175	2.31705e-006
2.175--2.2	2.21392e-006
2.2--2.225	2.1174e-006
2.225--2.25	2.02685e-006
2.25--2.275	1.94235e-006
2.275--2.3	1.86367e-006
2.3--2.325	1.79024e-006
2.325--2.35	1.72196e-006
2.35--2.375	1.65901e-006
2.375--2.4	1.60231e-006
2.4--2.425	1.55053e-006
2.425--2.45	1.50246e-006
2.45--2.475	1.46091e-006
2.475--2.5	1.42584e-006
2.5--2.525	1.39534e-006
2.525--2.55	1.37008e-006
2.55--2.575	1.35168e-006
2.575--2.6	1.34001e-006
2.6--2.625	1.33206e-006
2.625--2.65	1.32356e-006
2.65--2.675	1.32125e-006
2.675--2.7	1.32683e-006
2.7--2.725	1.34863e-006
2.725--2.75	1.38147e-006
2.75--2.775	1.42836e-006
2.775--2.8	1.49793e-006
2.8--2.825	1.58548e-006
2.825--2.85	1.70074e-006
2.85--2.875	1.85636e-006
2.875--2.9	2.0589e-006
2.9--2.925	2.35022e-006
2.925--2.95	2.75915e-006
2.95--2.975	3.3843e-006
2.975--3	4.64063e-006
3--3.025	6.74376e-006
3.025--3.05	1.10808e-005
3.05--3.075	1.72059e-005
3.075--3.1	2.42632e-005
3.1--3.125	2.56395e-005
3.125--3.15	2.29776e-005
3.15--3.175	1.48959e-005
3.175--3.2	8.61926e-006
3.2--3.225	3.95477e-006
3.225--3.25	1.9887e-006
3.25--3.275	9.43282e-007
3.275--3.3	5.50898e-007
3.3--3.325	3.80818e-007
3.325--3.35	2.87438e-007
3.35--3.375	2.40731e-007
3.375--3.4	2.08567e-007
3.4--3.425	1.85196e-007
3.425--3.45	1.70713e-007
3.45--3.475	1.59687e-007
3.475--3.5	1.51909e-007
3.5--3.525	1.48336e-007
3.525--3.55	1.4902e-007
3.55--3.575	1.57386e-007
3.575--3.6	1.75459e-007
3.6--3.625	2.24275e-007
3.625--3.65	2.94843e-007
3.65--3.675	3.91901e-007
3.675--3.7	4.21225e-007
3.7--3.725	3.96911e-007
3.725--3.75	2.88895e-007
3.75--3.775	1.924e-007
3.775--3.8	1.20473e-007
3.8--3.825	8.55835e-008
3.825--3.85	6.53232e-008
3.85--3.875	5.58541e-008
3.875--3.9	4.81139e-008
3.9--3.925	4.55471e-008
3.925--3.95	4.31172e-008
3.95--3.975	4.0817e-008
3.975--4	3.86394e-008
4--4.025	3.65781e-008
4.025--4.05	3.46267e-008
4.05--4.075	3.27794e-008
4.075--4.1	3.10306e-008
4.1--4.125	2.93752e-008
4.125--4.15	2.78081e-008
4.15--4.175	2.63245e-008
4.175--4.2	2.49202e-008
4.2--4.225	2.35907e-008
4.225--4.25	2.23322e-008
4.25--4.275	2.11408e-008
4.275--4.3	2.00129e-008
4.3--4.325	1.89453e-008
4.325--4.35	1.79346e-008
4.35--4.375	1.69778e-008
4.375--4.4	1.6072e-008
4.4--4.425	1.52146e-008
4.425--4.45	1.44029e-008
4.45--4.475	1.36345e-008
4.475--4.5	1.29072e-008
4.5--4.525	1.22186e-008
4.525--4.55	1.15667e-008
4.55--4.575	1.09497e-008
4.575--4.6	1.03655e-008
4.6--4.625	9.81252e-009
4.625--4.65	9.28904e-009
4.65--4.675	8.79348e-009
4.675--4.7	8.32436e-009
4.7--4.725	7.88026e-009
4.725--4.75	7.45986e-009
4.75--4.775	7.06189e-009
4.775--4.8	6.68514e-009
4.8--4.825	6.3285e-009
4.825--4.85	5.99088e-009
4.85--4.875	5.67127e-009
4.875--4.9	5.36872e-009
4.9--4.925	5.0823e-009
4.925--4.95	4.81117e-009
4.95--4.975	4.5545e-009
partonic yield (PY)
0--0.05	3.82616e-006
0.05--0.1	9.13649e-006
0.1--0.15	1.90622e-005
0.15--0.2	3.05108e-005
0.2--0.25	2.77173e-005
0.25--0.3	2.51721e-005
0.3--0.35	2.61939e-005
0.35--0.4	3.02873e-005
0.4--0.45	3.49005e-005
0.45--0.5	3.72012e-005
0.5--0.55	3.29306e-005
0.55--0.6	2.97142e-005
0.6--0.65	2.62662e-005
0.65--0.7	2.33531e-005
0.7--0.75	1.9599e-005
0.75--0.8	1.6808e-005
0.8--0.85	1.42008e-005
0.85--0.9	1.19231e-005
0.9--0.95	9.97886e-006
0.95--1	9.3931e-006
1--1.05	8.03043e-006
1.05--1.1	6.7709e-006
1.1--1.15	5.25061e-006
1.15--1.2	4.62017e-006
1.2--1.25	4.26106e-006
1.25--1.3	3.59253e-006
1.3--1.35	3.6172e-006
1.35--1.4	2.63868e-006
1.4--1.45	2.69837e-006
1.45--1.5	1.90321e-006
1.5--1.55	2.12877e-006
1.55--1.6	0
1.6--1.65	0
1.65--1.7	0
1.7--1.75	0
1.75--1.8	0
1.8--1.85	0
1.85--1.9	0
1.9--1.95	0
1.95--2	0
2--2.05	0
2.05--2.1	0
2.1--2.15	0
2.15--2.2	0
2.2--2.25	0
2.25--2.3	0
2.3--2.35	0
2.35--2.4	0
2.4--2.45	0
2.45--2.5	0
2.5--2.55	0
2.55--2.6	0
2.6--2.65	0
2.65--2.7	0
2.7--2.75	0
2.75--2.8	0
2.8--2.85	0
2.85--2.9	0
2.9--2.95	0
2.95--3	0
3--3.05	0
3.05--3.1	0
3.1--3.15	0
3.15--3.2	0
3.2--3.25	0
3.25--3.3	0
3.3--3.35	0
3.35--3.4	0
3.4--3.45	0
3.45--3.5	0
3.5--3.55	0
3.55--3.6	0
3.6--3.65	0
3.65--3.7	0
3.7--3.75	0
3.75--3.8	0
3.8--3.85	0
3.85--3.9	0
3.9--3.95	0
