Figure 42: invariant mass spectrum of e+e- pairs in MB Au+Au for different pt ranges compared to predictions from Ralf Rapp

data: as in Fig.29



0<pT<0.5 GeV/c
had/ #rho broadening
0--0.025	0.00419326
0.025--0.05	6.35153e-005
0.05--0.075	3.51649e-005
0.075--0.1	2.73501e-005
0.1--0.125	3.65685e-005
0.125--0.15	4.1201e-005
0.15--0.175	3.5213e-005
0.175--0.2	1.45649e-005
0.2--0.225	1.67224e-005
0.225--0.25	1.17194e-005
0.25--0.275	1.29402e-005
0.275--0.3	1.89714e-005
0.3--0.325	1.98377e-005
0.325--0.35	2.6478e-005
0.35--0.375	3.70185e-005
0.375--0.4	4.78615e-005
0.4--0.425	6.24389e-005
0.425--0.45	7.26097e-005
0.45--0.475	8.13086e-005
0.475--0.5	7.95099e-005
0.5--0.525	7.34462e-005
0.525--0.55	5.8475e-005
0.55--0.575	6.06691e-005
0.575--0.6	5.04141e-005
0.6--0.625	5.04236e-005
0.625--0.65	4.92304e-005
0.65--0.675	4.8694e-005
0.675--0.7	4.83521e-005
0.7--0.725	4.42096e-005
0.725--0.75	4.10369e-005
0.75--0.775	3.99898e-005
0.775--0.8	3.53857e-005
0.8--0.825	2.23941e-005
0.825--0.85	2.01219e-005
0.85--0.875	1.2054e-005
0.875--0.9	8.6183e-006
0.9--0.925	7.07123e-006
0.925--0.95	5.21756e-006
0.95--0.975	6.39268e-006
0.975--1	8.19655e-006
1--1.025	2.14936e-005
1.025--1.05	1.21771e-005
1.05--1.075	5.87103e-006
1.075--1.1	2.56246e-006
1.1--1.125	1.84062e-006
1.125--1.15	1.82183e-006
1.15--1.175	8.21559e-007
1.175--1.2	1.22327e-006
1.2--1.225	2.05312e-006
1.225--1.25	9.41983e-007
1.25--1.275	1.29111e-006
1.275--1.3	8.05521e-007
1.3--1.325	3.82406e-007
1.325--1.35	8.41823e-007
1.35--1.375	4.69766e-007
1.375--1.4	0
1.4--1.425	6.71163e-007
1.425--1.45	1.41466e-006
1.45--1.475	0
1.475--1.5	2.05005e-007
1.5--1.525	5.1298e-007
1.525--1.55	0
1.55--1.575	0
1.575--1.6	0
1.6--1.625	0
1.625--1.65	0
1.65--1.675	0
1.675--1.7	0
1.7--1.725	0
1.725--1.75	0
1.75--1.775	0
1.775--1.8	0
1.8--1.825	0
1.825--1.85	0
1.85--1.875	0
1.875--1.9	0
1.9--1.925	0
1.925--1.95	0
1.95--1.975	0
1.975--2	0
2--2.025	0
2.025--2.05	0
2.05--2.075	0
2.075--2.1	0
2.1--2.125	0
2.125--2.15	0
2.15--2.175	0
2.175--2.2	0
2.2--2.225	0
2.225--2.25	0
2.25--2.275	0
2.275--2.3	0
2.3--2.325	0
2.325--2.35	0
2.35--2.375	0
2.375--2.4	0
2.4--2.425	0
2.425--2.45	0
2.45--2.475	0
2.475--2.5	0
2.5--2.525	0
2.525--2.55	0
2.55--2.575	0
2.575--2.6	0
2.6--2.625	0
2.625--2.65	0
2.65--2.675	0
2.675--2.7	0
2.7--2.725	0
2.725--2.75	0
2.75--2.775	0
2.775--2.8	0
2.8--2.825	0
2.825--2.85	0
2.85--2.875	0
2.875--2.9	0
2.9--2.925	0
2.925--2.95	0
2.95--2.975	0
2.975--3	0
3--3.025	0
3.025--3.05	0
3.05--3.075	0
3.075--3.1	0
3.1--3.125	0
3.125--3.15	0
3.15--3.175	0
3.175--3.2	0
3.2--3.225	0
3.225--3.25	0
3.25--3.275	0
3.275--3.3	0
3.3--3.325	0
3.325--3.35	0
3.35--3.375	0
3.375--3.4	0
3.4--3.425	0
3.425--3.45	0
3.45--3.475	0
3.475--3.5	0
3.5--3.525	0
3.525--3.55	0
3.55--3.575	0
3.575--3.6	0
3.6--3.625	0
3.625--3.65	0
3.65--3.675	0
3.675--3.7	0
3.7--3.725	0
3.725--3.75	0
3.75--3.775	0
3.775--3.8	0
3.8--3.825	0
3.825--3.85	0
3.85--3.875	0
3.875--3.9	0
3.9--3.925	0
3.925--3.95	0
3.95--3.975	0
had/ #rho dropping)
0--0.025	0.00447527
0.025--0.05	6.53928e-005
0.05--0.075	3.38261e-005
0.075--0.1	2.32376e-005
0.1--0.125	3.06101e-005
0.125--0.15	2.87282e-005
0.15--0.175	2.57603e-005
0.175--0.2	1.34664e-005
0.2--0.225	1.5209e-005
0.225--0.25	7.71771e-006
0.25--0.275	8.62182e-006
0.275--0.3	1.23527e-005
0.3--0.325	1.46374e-005
0.325--0.35	2.40592e-005
0.35--0.375	3.65051e-005
0.375--0.4	4.75143e-005
0.4--0.425	5.98784e-005
0.425--0.45	7.24003e-005
0.45--0.475	8.40543e-005
0.475--0.5	0.00010374
0.5--0.525	9.39297e-005
0.525--0.55	9.04997e-005
0.55--0.575	8.78982e-005
0.575--0.6	7.66413e-005
0.6--0.625	7.74712e-005
0.625--0.65	6.90707e-005
0.65--0.675	6.32033e-005
0.675--0.7	4.44094e-005
0.7--0.725	3.2048e-005
0.725--0.75	1.43657e-005
0.75--0.775	7.93841e-006
0.775--0.8	4.41658e-006
0.8--0.825	4.09235e-006
0.825--0.85	1.85754e-006
0.85--0.875	5.61495e-006
0.875--0.9	6.33016e-006
0.9--0.925	4.69644e-006
0.925--0.95	5.25272e-006
0.95--0.975	9.9778e-006
0.975--1	1.37275e-005
1--1.025	6.48399e-006
1.025--1.05	8.13745e-007
1.05--1.075	1.37754e-006
1.075--1.1	1.43236e-006
1.1--1.125	8.09755e-007
1.125--1.15	1.04922e-006
1.15--1.175	1.04093e-006
1.175--1.2	4.84347e-007
1.2--1.225	1.00051e-006
1.225--1.25	5.96754e-007
1.25--1.275	9.08813e-007
1.275--1.3	1.27576e-006
1.3--1.325	8.07525e-007
1.325--1.35	4.44418e-007
1.35--1.375	2.48e-007
1.375--1.4	9.84902e-007
1.4--1.425	4.72431e-007
1.425--1.45	9.95774e-007
1.45--1.475	0
1.475--1.5	6.49362e-007
1.5--1.525	2.70814e-007
1.525--1.55	0
1.55--1.575	0
1.575--1.6	0
1.6--1.625	0
1.625--1.65	0
1.65--1.675	0
1.675--1.7	0
1.7--1.725	0
1.725--1.75	0
1.75--1.775	0
1.775--1.8	0
1.8--1.825	0
1.825--1.85	0
1.85--1.875	0
1.875--1.9	0
1.9--1.925	0
1.925--1.95	0
1.95--1.975	0
1.975--2	0
2--2.025	0
2.025--2.05	0
2.05--2.075	0
2.075--2.1	0
2.1--2.125	0
2.125--2.15	0
2.15--2.175	0
2.175--2.2	0
2.2--2.225	0
2.225--2.25	0
2.25--2.275	0
2.275--2.3	0
2.3--2.325	0
2.325--2.35	0
2.35--2.375	0
2.375--2.4	0
2.4--2.425	0
2.425--2.45	0
2.45--2.475	0
2.475--2.5	0
2.5--2.525	0
2.525--2.55	0
2.55--2.575	0
2.575--2.6	0
2.6--2.625	0
2.625--2.65	0
2.65--2.675	0
2.675--2.7	0
2.7--2.725	0
2.725--2.75	0
2.75--2.775	0
2.775--2.8	0
2.8--2.825	0
2.825--2.85	0
2.85--2.875	0
2.875--2.9	0
2.9--2.925	0
2.925--2.95	0
2.95--2.975	0
2.975--3	0
3--3.025	0
3.025--3.05	0
3.05--3.075	0
3.075--3.1	0
3.1--3.125	0
3.125--3.15	0
3.15--3.175	0
3.175--3.2	0
3.2--3.225	0
3.225--3.25	0
3.25--3.275	0
3.275--3.3	0
3.3--3.325	0
3.325--3.35	0
3.35--3.375	0
3.375--3.4	0
3.4--3.425	0
3.425--3.45	0
3.45--3.475	0
3.475--3.5	0
3.5--3.525	0
3.525--3.55	0
3.55--3.575	0
3.575--3.6	0
3.6--3.625	0
3.625--3.65	0
3.65--3.675	0
3.675--3.7	0
3.7--3.725	0
3.725--3.75	0
3.75--3.775	0
3.775--3.8	0
3.8--3.825	0
3.825--3.85	0
3.85--3.875	0
3.875--3.9	0
3.9--3.925	0
3.925--3.95	0
3.95--3.975	0
partonic yield (PY)
0--0.025	2.93464e-007
0.025--0.05	1.21073e-006
0.05--0.075	1.53154e-006
0.075--0.1	2.52353e-006
0.1--0.125	3.30006e-006
0.125--0.15	5.27944e-006
0.15--0.175	4.55864e-006
0.175--0.2	2.78693e-006
0.2--0.225	3.11957e-006
0.225--0.25	2.5861e-006
0.25--0.275	3.03216e-006
0.275--0.3	4.28455e-006
0.3--0.325	4.75663e-006
0.325--0.35	6.03344e-006
0.35--0.375	8.58821e-006
0.375--0.4	9.1078e-006
0.4--0.425	1.20719e-005
0.425--0.45	1.38491e-005
0.45--0.475	1.38997e-005
0.475--0.5	1.52022e-005
0.5--0.525	1.26433e-005
0.525--0.55	1.10744e-005
0.55--0.575	1.05101e-005
0.575--0.6	9.2789e-006
0.6--0.625	8.42985e-006
0.625--0.65	7.75323e-006
0.65--0.675	7.13312e-006
0.675--0.7	6.69684e-006
0.7--0.725	5.66606e-006
0.725--0.75	5.06635e-006
0.75--0.775	4.68996e-006
0.775--0.8	4.32916e-006
0.8--0.825	3.74414e-006
0.825--0.85	3.55392e-006
0.85--0.875	3.35309e-006
0.875--0.9	3.29691e-006
0.9--0.925	2.7507e-006
0.925--0.95	2.63697e-006
0.95--0.975	2.62018e-006
0.975--1	2.45022e-006
1--1.025	2.48226e-006
1.025--1.05	2.30004e-006
1.05--1.075	2.23897e-006
1.075--1.1	1.81536e-006
1.1--1.125	1.73162e-006
1.125--1.15	1.5626e-006
1.15--1.175	1.52622e-006
1.175--1.2	1.18261e-006
1.2--1.225	1.28344e-006
1.225--1.25	1.21785e-006
1.25--1.275	1.42414e-006
1.275--1.3	1.07552e-006
1.3--1.325	9.91734e-007
1.325--1.35	1.24707e-006
1.35--1.375	9.0197e-007
1.375--1.4	8.88337e-007
1.4--1.425	8.35005e-007
1.425--1.45	8.58225e-007
1.45--1.475	5.85368e-007
1.475--1.5	4.8591e-007
1.5--1.525	6.21758e-007
1.525--1.55	7.33243e-007
1.55--1.575	0
1.575--1.6	0
1.6--1.625	0
1.625--1.65	0
1.65--1.675	0
1.675--1.7	0
1.7--1.725	0
1.725--1.75	0
1.75--1.775	0
1.775--1.8	0
1.8--1.825	0
1.825--1.85	0
1.85--1.875	0
1.875--1.9	0
1.9--1.925	0
1.925--1.95	0
1.95--1.975	0
1.975--2	0
2--2.025	0
2.025--2.05	0
2.05--2.075	0
2.075--2.1	0
2.1--2.125	0
2.125--2.15	0
2.15--2.175	0
2.175--2.2	0
2.2--2.225	0
2.225--2.25	0
2.25--2.275	0
2.275--2.3	0
2.3--2.325	0
2.325--2.35	0
2.35--2.375	0
2.375--2.4	0
2.4--2.425	0
2.425--2.45	0
2.45--2.475	0
2.475--2.5	0
2.5--2.525	0
2.525--2.55	0
2.55--2.575	0
2.575--2.6	0
2.6--2.625	0
2.625--2.65	0
2.65--2.675	0
2.675--2.7	0
2.7--2.725	0
2.725--2.75	0
2.75--2.775	0
2.775--2.8	0
2.8--2.825	0
2.825--2.85	0
2.85--2.875	0
2.875--2.9	0
2.9--2.925	0
2.925--2.95	0
2.95--2.975	0
2.975--3	0
3--3.025	0
3.025--3.05	0
3.05--3.075	0
3.075--3.1	0
3.1--3.125	0
3.125--3.15	0
3.15--3.175	0
3.175--3.2	0
3.2--3.225	0
3.225--3.25	0
3.25--3.275	0
3.275--3.3	0
3.3--3.325	0
3.325--3.35	0
3.35--3.375	0
3.375--3.4	0
3.4--3.425	0
3.425--3.45	0
3.45--3.475	0
3.475--3.5	0
3.5--3.525	0
3.525--3.55	0
3.55--3.575	0
3.575--3.6	0
3.6--3.625	0
3.625--3.65	0
3.65--3.675	0
3.675--3.7	0
3.7--3.725	0
3.725--3.75	0
3.75--3.775	0
3.775--3.8	0
3.8--3.825	0
3.825--3.85	0
3.85--3.875	0
3.875--3.9	0
3.9--3.925	0
3.925--3.95	0
3.95--3.975	0
0.5<pT<1.0 GeV/c
had w/ #rho broadening
0--0.025	0.0087427
0.025--0.05	0.000288036
0.05--0.075	0.000150789
0.075--0.1	7.59092e-005
0.1--0.125	7.70325e-005
0.125--0.15	5.46974e-005
0.15--0.175	6.02346e-005
0.175--0.2	5.8471e-005
0.2--0.225	6.02952e-005
0.225--0.25	5.30753e-005
0.25--0.275	6.07738e-005
0.275--0.3	5.37863e-005
0.3--0.325	5.98602e-005
0.325--0.35	6.49817e-005
0.35--0.375	7.10011e-005
0.375--0.4	6.85078e-005
0.4--0.425	7.49307e-005
0.425--0.45	7.88568e-005
0.45--0.475	8.29251e-005
0.475--0.5	8.11845e-005
0.5--0.525	8.37892e-005
0.525--0.55	8.10833e-005
0.55--0.575	8.26522e-005
0.575--0.6	8.48122e-005
0.6--0.625	8.11011e-005
0.625--0.65	7.86033e-005
0.65--0.675	8.49415e-005
0.675--0.7	8.54535e-005
0.7--0.725	8.96686e-005
0.725--0.75	8.94684e-005
0.75--0.775	8.59406e-005
0.775--0.8	6.96841e-005
0.8--0.825	4.91922e-005
0.825--0.85	3.28719e-005
0.85--0.875	2.42643e-005
0.875--0.9	1.72024e-005
0.9--0.925	1.24813e-005
0.925--0.95	1.09122e-005
0.95--0.975	9.99608e-006
0.975--1	1.63656e-005
1--1.025	4.35775e-005
1.025--1.05	2.2099e-005
1.05--1.075	7.19993e-006
1.075--1.1	3.90515e-006
1.1--1.125	3.75566e-006
1.125--1.15	2.77142e-006
1.15--1.175	2.35455e-006
1.175--1.2	2.17549e-006
1.2--1.225	2.54429e-006
1.225--1.25	2.40021e-006
1.25--1.275	1.96062e-006
1.275--1.3	1.39191e-006
1.3--1.325	1.98237e-006
1.325--1.35	1.77247e-006
1.35--1.375	8.90199e-007
1.375--1.4	1.02645e-006
1.4--1.425	9.22345e-007
1.425--1.45	1.21783e-006
1.45--1.475	5.12163e-007
1.475--1.5	3.57853e-007
1.5--1.525	5.15051e-007
1.525--1.55	6.72587e-007
1.55--1.575	0
1.575--1.6	0
1.6--1.625	0
1.625--1.65	0
1.65--1.675	0
1.675--1.7	0
1.7--1.725	0
1.725--1.75	0
1.75--1.775	0
1.775--1.8	0
1.8--1.825	0
1.825--1.85	0
1.85--1.875	0
1.875--1.9	0
1.9--1.925	0
1.925--1.95	0
1.95--1.975	0
1.975--2	0
2--2.025	0
2.025--2.05	0
2.05--2.075	0
2.075--2.1	0
2.1--2.125	0
2.125--2.15	0
2.15--2.175	0
2.175--2.2	0
2.2--2.225	0
2.225--2.25	0
2.25--2.275	0
2.275--2.3	0
2.3--2.325	0
2.325--2.35	0
2.35--2.375	0
2.375--2.4	0
2.4--2.425	0
2.425--2.45	0
2.45--2.475	0
2.475--2.5	0
2.5--2.525	0
2.525--2.55	0
2.55--2.575	0
2.575--2.6	0
2.6--2.625	0
2.625--2.65	0
2.65--2.675	0
2.675--2.7	0
2.7--2.725	0
2.725--2.75	0
2.75--2.775	0
2.775--2.8	0
2.8--2.825	0
2.825--2.85	0
2.85--2.875	0
2.875--2.9	0
2.9--2.925	0
2.925--2.95	0
2.95--2.975	0
2.975--3	0
3--3.025	0
3.025--3.05	0
3.05--3.075	0
3.075--3.1	0
3.1--3.125	0
3.125--3.15	0
3.15--3.175	0
3.175--3.2	0
3.2--3.225	0
3.225--3.25	0
3.25--3.275	0
3.275--3.3	0
3.3--3.325	0
3.325--3.35	0
3.35--3.375	0
3.375--3.4	0
3.4--3.425	0
3.425--3.45	0
3.45--3.475	0
3.475--3.5	0
3.5--3.525	0
3.525--3.55	0
3.55--3.575	0
3.575--3.6	0
3.6--3.625	0
3.625--3.65	0
3.65--3.675	0
3.675--3.7	0
3.7--3.725	0
3.725--3.75	0
3.75--3.775	0
3.775--3.8	0
3.8--3.825	0
3.825--3.85	0
3.85--3.875	0
3.875--3.9	0
3.9--3.925	0
3.925--3.95	0
3.95--3.975	0
had/ #rho dropping)
0--0.025	0.00390541
0.025--0.05	0.000128532
0.05--0.075	6.57202e-005
0.075--0.1	3.42919e-005
0.1--0.125	3.48731e-005
0.125--0.15	2.55019e-005
0.15--0.175	2.78995e-005
0.175--0.2	3.89347e-005
0.2--0.225	4.05082e-005
0.225--0.25	2.56482e-005
0.25--0.275	2.96286e-005
0.275--0.3	3.12406e-005
0.3--0.325	3.56507e-005
0.325--0.35	5.60378e-005
0.35--0.375	6.09812e-005
0.375--0.4	7.46537e-005
0.4--0.425	8.26881e-005
0.425--0.45	9.13776e-005
0.45--0.475	0.000109098
0.475--0.5	0.000114846
0.5--0.525	0.000122205
0.525--0.55	0.000126884
0.55--0.575	0.000134056
0.575--0.6	0.000136946
0.6--0.625	0.000137017
0.625--0.65	0.000126971
0.65--0.675	0.000121748
0.675--0.7	0.000102592
0.7--0.725	7.28546e-005
0.725--0.75	3.45429e-005
0.75--0.775	1.84176e-005
0.775--0.8	1.22498e-005
0.8--0.825	8.28405e-006
0.825--0.85	7.65367e-006
0.85--0.875	1.25718e-005
0.875--0.9	8.56117e-006
0.9--0.925	8.90844e-006
0.925--0.95	1.17417e-005
0.95--0.975	2.13325e-005
0.975--1	3.71179e-005
1--1.025	1.59464e-005
1.025--1.05	3.65686e-006
1.05--1.075	2.84037e-006
1.075--1.1	2.13985e-006
1.1--1.125	2.22696e-006
1.125--1.15	2.32006e-006
1.15--1.175	2.31461e-006
1.175--1.2	1.70955e-006
1.2--1.225	1.84255e-006
1.225--1.25	1.77311e-006
1.25--1.275	1.78105e-006
1.275--1.3	1.34401e-006
1.3--1.325	1.58467e-006
1.325--1.35	1.74204e-006
1.35--1.375	1.28935e-006
1.375--1.4	1.1044e-006
1.4--1.425	9.46266e-007
1.425--1.45	9.70136e-007
1.45--1.475	5.81809e-007
1.475--1.5	6.12545e-007
1.5--1.525	7.02107e-007
1.525--1.55	7.63093e-007
1.55--1.575	0
1.575--1.6	0
1.6--1.625	0
1.625--1.65	0
1.65--1.675	0
1.675--1.7	0
1.7--1.725	0
1.725--1.75	0
1.75--1.775	0
1.775--1.8	0
1.8--1.825	0
1.825--1.85	0
1.85--1.875	0
1.875--1.9	0
1.9--1.925	0
1.925--1.95	0
1.95--1.975	0
1.975--2	0
2--2.025	0
2.025--2.05	0
2.05--2.075	0
2.075--2.1	0
2.1--2.125	0
2.125--2.15	0
2.15--2.175	0
2.175--2.2	0
2.2--2.225	0
2.225--2.25	0
2.25--2.275	0
2.275--2.3	0
2.3--2.325	0
2.325--2.35	0
2.35--2.375	0
2.375--2.4	0
2.4--2.425	0
2.425--2.45	0
2.45--2.475	0
2.475--2.5	0
2.5--2.525	0
2.525--2.55	0
2.55--2.575	0
2.575--2.6	0
2.6--2.625	0
2.625--2.65	0
2.65--2.675	0
2.675--2.7	0
2.7--2.725	0
2.725--2.75	0
2.75--2.775	0
2.775--2.8	0
2.8--2.825	0
2.825--2.85	0
2.85--2.875	0
2.875--2.9	0
2.9--2.925	0
2.925--2.95	0
2.95--2.975	0
2.975--3	0
3--3.025	0
3.025--3.05	0
3.05--3.075	0
3.075--3.1	0
3.1--3.125	0
3.125--3.15	0
3.15--3.175	0
3.175--3.2	0
3.2--3.225	0
3.225--3.25	0
3.25--3.275	0
3.275--3.3	0
3.3--3.325	0
3.325--3.35	0
3.35--3.375	0
3.375--3.4	0
3.4--3.425	0
3.425--3.45	0
3.45--3.475	0
3.475--3.5	0
3.5--3.525	0
3.525--3.55	0
3.55--3.575	0
3.575--3.6	0
3.6--3.625	0
3.625--3.65	0
3.65--3.675	0
3.675--3.7	0
3.7--3.725	0
3.725--3.75	0
3.75--3.775	0
3.775--3.8	0
3.8--3.825	0
3.825--3.85	0
3.85--3.875	0
3.875--3.9	0
3.9--3.925	0
3.925--3.95	0
3.95--3.975	0
partonic yield (PY)
0--0.025	2.62368e-008
0.025--0.05	9.2946e-007
0.05--0.075	9.77724e-007
0.075--0.1	1.9067e-006
0.1--0.125	1.98707e-006
0.125--0.15	2.9167e-006
0.15--0.175	3.25909e-006
0.175--0.2	5.10581e-006
0.2--0.225	5.29993e-006
0.225--0.25	6.64378e-006
0.25--0.275	7.42766e-006
0.275--0.3	7.97017e-006
0.3--0.325	9.17e-006
0.325--0.35	1.06727e-005
0.35--0.375	1.15996e-005
0.375--0.4	1.18076e-005
0.4--0.425	1.25299e-005
0.425--0.45	1.27979e-005
0.45--0.475	1.38967e-005
0.475--0.5	1.36473e-005
0.5--0.525	1.34986e-005
0.525--0.55	1.28813e-005
0.55--0.575	1.27255e-005
0.575--0.6	1.24154e-005
0.6--0.625	1.16979e-005
0.625--0.65	1.07687e-005
0.65--0.675	1.02506e-005
0.675--0.7	9.46293e-006
0.7--0.725	8.99226e-006
0.725--0.75	8.15262e-006
0.75--0.775	7.61955e-006
0.775--0.8	7.11063e-006
0.8--0.825	6.53106e-006
0.825--0.85	6.10458e-006
0.85--0.875	5.63992e-006
0.875--0.9	5.00177e-006
0.9--0.925	4.69508e-006
0.925--0.95	4.25186e-006
0.95--0.975	4.00732e-006
0.975--1	3.53321e-006
1--1.025	3.32846e-006
1.025--1.05	3.14284e-006
1.05--1.075	2.84025e-006
1.075--1.1	2.31733e-006
1.1--1.125	2.33195e-006
1.125--1.15	2.01175e-006
1.15--1.175	2.28349e-006
1.175--1.2	1.61114e-006
1.2--1.225	1.92122e-006
1.225--1.25	1.69407e-006
1.25--1.275	1.501e-006
1.275--1.3	1.23471e-006
1.3--1.325	1.65069e-006
1.325--1.35	1.51957e-006
1.35--1.375	1.12676e-006
1.375--1.4	1.05053e-006
1.4--1.425	1.02546e-006
1.425--1.45	1.13943e-006
1.45--1.475	8.1326e-007
1.475--1.5	8.88195e-007
1.5--1.525	8.33782e-007
1.525--1.55	8.6163e-007
1.55--1.575	0
1.575--1.6	0
1.6--1.625	0
1.625--1.65	0
1.65--1.675	0
1.675--1.7	0
1.7--1.725	0
1.725--1.75	0
1.75--1.775	0
1.775--1.8	0
1.8--1.825	0
1.825--1.85	0
1.85--1.875	0
1.875--1.9	0
1.9--1.925	0
1.925--1.95	0
1.95--1.975	0
1.975--2	0
2--2.025	0
2.025--2.05	0
2.05--2.075	0
2.075--2.1	0
2.1--2.125	0
2.125--2.15	0
2.15--2.175	0
2.175--2.2	0
2.2--2.225	0
2.225--2.25	0
2.25--2.275	0
2.275--2.3	0
2.3--2.325	0
2.325--2.35	0
2.35--2.375	0
2.375--2.4	0
2.4--2.425	0
2.425--2.45	0
2.45--2.475	0
2.475--2.5	0
2.5--2.525	0
2.525--2.55	0
2.55--2.575	0
2.575--2.6	0
2.6--2.625	0
2.625--2.65	0
2.65--2.675	0
2.675--2.7	0
2.7--2.725	0
2.725--2.75	0
2.75--2.775	0
2.775--2.8	0
2.8--2.825	0
2.825--2.85	0
2.85--2.875	0
2.875--2.9	0
2.9--2.925	0
2.925--2.95	0
2.95--2.975	0
2.975--3	0
3--3.025	0
3.025--3.05	0
3.05--3.075	0
3.075--3.1	0
3.1--3.125	0
3.125--3.15	0
3.15--3.175	0
3.175--3.2	0
3.2--3.225	0
3.225--3.25	0
3.25--3.275	0
3.275--3.3	0
3.3--3.325	0
3.325--3.35	0
3.35--3.375	0
3.375--3.4	0
3.4--3.425	0
3.425--3.45	0
3.45--3.475	0
3.475--3.5	0
3.5--3.525	0
3.525--3.55	0
3.55--3.575	0
3.575--3.6	0
3.6--3.625	0
3.625--3.65	0
3.65--3.675	0
3.675--3.7	0
3.7--3.725	0
3.725--3.75	0
3.75--3.775	0
3.775--3.8	0
3.8--3.825	0
3.825--3.85	0
3.85--3.875	0
3.875--3.9	0
3.9--3.925	0
3.925--3.95	0
3.95--3.975	0
1.0<pT<1.5 GeV/c
had w/ #rho broadening
0--0.025	0.00413739
0.025--0.05	0.000136264
0.05--0.075	7.00829e-005
0.075--0.1	3.6132e-005
0.1--0.125	3.396e-005
0.125--0.15	2.17108e-005
0.15--0.175	2.10166e-005
0.175--0.2	1.69661e-005
0.2--0.225	1.57911e-005
0.225--0.25	1.43201e-005
0.25--0.275	1.40675e-005
0.275--0.3	1.29058e-005
0.3--0.325	1.15652e-005
0.325--0.35	1.16684e-005
0.35--0.375	1.18089e-005
0.375--0.4	1.129e-005
0.4--0.425	1.24709e-005
0.425--0.45	1.28283e-005
0.45--0.475	1.3721e-005
0.475--0.5	1.41794e-005
0.5--0.525	1.43928e-005
0.525--0.55	1.44013e-005
0.55--0.575	1.5454e-005
0.575--0.6	1.52224e-005
0.6--0.625	1.6446e-005
0.625--0.65	1.78395e-005
0.65--0.675	1.98708e-005
0.675--0.7	2.08615e-005
0.7--0.725	2.20048e-005
0.725--0.75	2.46681e-005
0.75--0.775	2.37438e-005
0.775--0.8	2.06605e-005
0.8--0.825	1.52173e-005
0.825--0.85	1.17967e-005
0.85--0.875	7.82666e-006
0.875--0.9	6.27954e-006
0.9--0.925	5.01917e-006
0.925--0.95	4.16126e-006
0.95--0.975	4.28846e-006
0.975--1	6.44954e-006
1--1.025	1.86893e-005
1.025--1.05	9.88455e-006
1.05--1.075	3.40294e-006
1.075--1.1	2.61559e-006
1.1--1.125	1.84367e-006
1.125--1.15	1.3688e-006
1.15--1.175	1.48415e-006
1.175--1.2	1.2579e-006
1.2--1.225	1.22942e-006
1.225--1.25	1.0466e-006
1.25--1.275	1.15041e-006
1.275--1.3	1.00195e-006
1.3--1.325	8.10469e-007
1.325--1.35	9.53634e-007
1.35--1.375	5.88285e-007
1.375--1.4	4.64441e-007
1.4--1.425	5.22767e-007
1.425--1.45	5.06799e-007
1.45--1.475	3.52609e-007
1.475--1.5	3.25017e-007
1.5--1.525	3.74887e-007
1.525--1.55	4.19142e-007
1.55--1.575	0
1.575--1.6	0
1.6--1.625	0
1.625--1.65	0
1.65--1.675	0
1.675--1.7	0
1.7--1.725	0
1.725--1.75	0
1.75--1.775	0
1.775--1.8	0
1.8--1.825	0
1.825--1.85	0
1.85--1.875	0
1.875--1.9	0
1.9--1.925	0
1.925--1.95	0
1.95--1.975	0
1.975--2	0
2--2.025	0
2.025--2.05	0
2.05--2.075	0
2.075--2.1	0
2.1--2.125	0
2.125--2.15	0
2.15--2.175	0
2.175--2.2	0
2.2--2.225	0
2.225--2.25	0
2.25--2.275	0
2.275--2.3	0
2.3--2.325	0
2.325--2.35	0
2.35--2.375	0
2.375--2.4	0
2.4--2.425	0
2.425--2.45	0
2.45--2.475	0
2.475--2.5	0
2.5--2.525	0
2.525--2.55	0
2.55--2.575	0
2.575--2.6	0
2.6--2.625	0
2.625--2.65	0
2.65--2.675	0
2.675--2.7	0
2.7--2.725	0
2.725--2.75	0
2.75--2.775	0
2.775--2.8	0
2.8--2.825	0
2.825--2.85	0
2.85--2.875	0
2.875--2.9	0
2.9--2.925	0
2.925--2.95	0
2.95--2.975	0
2.975--3	0
3--3.025	0
3.025--3.05	0
3.05--3.075	0
3.075--3.1	0
3.1--3.125	0
3.125--3.15	0
3.15--3.175	0
3.175--3.2	0
3.2--3.225	0
3.225--3.25	0
3.25--3.275	0
3.275--3.3	0
3.3--3.325	0
3.325--3.35	0
3.35--3.375	0
3.375--3.4	0
3.4--3.425	0
3.425--3.45	0
3.45--3.475	0
3.475--3.5	0
3.5--3.525	0
3.525--3.55	0
3.55--3.575	0
3.575--3.6	0
3.6--3.625	0
3.625--3.65	0
3.65--3.675	0
3.675--3.7	0
3.7--3.725	0
3.725--3.75	0
3.75--3.775	0
3.775--3.8	0
3.8--3.825	0
3.825--3.85	0
3.85--3.875	0
3.875--3.9	0
3.9--3.925	0
3.925--3.95	0
3.95--3.975	0
had/ #rho dropping)
0--0.025	0.00117849
0.025--0.05	3.91196e-005
0.05--0.075	2.05527e-005
0.075--0.1	1.12449e-005
0.1--0.125	1.03713e-005
0.125--0.15	7.47415e-006
0.15--0.175	7.36474e-006
0.175--0.2	1.18189e-005
0.2--0.225	1.13255e-005
0.225--0.25	5.95613e-006
0.25--0.275	6.04622e-006
0.275--0.3	7.48722e-006
0.3--0.325	6.64323e-006
0.325--0.35	1.07371e-005
0.35--0.375	1.1006e-005
0.375--0.4	1.34717e-005
0.4--0.425	1.61991e-005
0.425--0.45	1.78965e-005
0.45--0.475	2.03583e-005
0.475--0.5	2.24956e-005
0.5--0.525	2.37907e-005
0.525--0.55	2.47015e-005
0.55--0.575	2.61276e-005
0.575--0.6	2.61186e-005
0.6--0.625	2.80124e-005
0.625--0.65	2.8949e-005
0.65--0.675	2.60634e-005
0.675--0.7	2.2138e-005
0.7--0.725	1.56886e-005
0.725--0.75	8.03831e-006
0.75--0.775	4.78154e-006
0.775--0.8	3.09227e-006
0.8--0.825	2.4961e-006
0.825--0.85	2.07696e-006
0.85--0.875	4.12705e-006
0.875--0.9	2.9876e-006
0.9--0.925	3.13803e-006
0.925--0.95	4.33677e-006
0.95--0.975	8.09828e-006
0.975--1	1.49653e-005
1--1.025	6.53666e-006
1.025--1.05	1.64719e-006
1.05--1.075	1.2301e-006
1.075--1.1	1.29096e-006
1.1--1.125	1.08436e-006
1.125--1.15	1.00369e-006
1.15--1.175	1.09952e-006
1.175--1.2	1.03044e-006
1.2--1.225	9.95415e-007
1.225--1.25	9.05447e-007
1.25--1.275	9.23165e-007
1.275--1.3	8.37999e-007
1.3--1.325	7.46416e-007
1.325--1.35	8.06826e-007
1.35--1.375	5.30278e-007
1.375--1.4	4.65864e-007
1.4--1.425	5.4016e-007
1.425--1.45	4.46386e-007
1.45--1.475	3.21336e-007
1.475--1.5	3.35517e-007
1.5--1.525	3.98296e-007
1.525--1.55	3.57535e-007
1.55--1.575	0
1.575--1.6	0
1.6--1.625	0
1.625--1.65	0
1.65--1.675	0
1.675--1.7	0
1.7--1.725	0
1.725--1.75	0
1.75--1.775	0
1.775--1.8	0
1.8--1.825	0
1.825--1.85	0
1.85--1.875	0
1.875--1.9	0
1.9--1.925	0
1.925--1.95	0
1.95--1.975	0
1.975--2	0
2--2.025	0
2.025--2.05	0
2.05--2.075	0
2.075--2.1	0
2.1--2.125	0
2.125--2.15	0
2.15--2.175	0
2.175--2.2	0
2.2--2.225	0
2.225--2.25	0
2.25--2.275	0
2.275--2.3	0
2.3--2.325	0
2.325--2.35	0
2.35--2.375	0
2.375--2.4	0
2.4--2.425	0
2.425--2.45	0
2.45--2.475	0
2.475--2.5	0
2.5--2.525	0
2.525--2.55	0
2.55--2.575	0
2.575--2.6	0
2.6--2.625	0
2.625--2.65	0
2.65--2.675	0
2.675--2.7	0
2.7--2.725	0
2.725--2.75	0
2.75--2.775	0
2.775--2.8	0
2.8--2.825	0
2.825--2.85	0
2.85--2.875	0
2.875--2.9	0
2.9--2.925	0
2.925--2.95	0
2.95--2.975	0
2.975--3	0
3--3.025	0
3.025--3.05	0
3.05--3.075	0
3.075--3.1	0
3.1--3.125	0
3.125--3.15	0
3.15--3.175	0
3.175--3.2	0
3.2--3.225	0
3.225--3.25	0
3.25--3.275	0
3.275--3.3	0
3.3--3.325	0
3.325--3.35	0
3.35--3.375	0
3.375--3.4	0
3.4--3.425	0
3.425--3.45	0
3.45--3.475	0
3.475--3.5	0
3.5--3.525	0
3.525--3.55	0
3.55--3.575	0
3.575--3.6	0
3.6--3.625	0
3.625--3.65	0
3.65--3.675	0
3.675--3.7	0
3.7--3.725	0
3.725--3.75	0
3.75--3.775	0
3.775--3.8	0
3.8--3.825	0
3.825--3.85	0
3.85--3.875	0
3.875--3.9	0
3.9--3.925	0
3.925--3.95	0
3.95--3.975	0
partonic yield (PY)
0--0.025	1.4516e-008
0.025--0.05	5.95746e-007
0.05--0.075	6.23342e-007
0.075--0.1	1.24294e-006
0.1--0.125	1.18096e-006
0.125--0.15	1.62575e-006
0.15--0.175	1.58269e-006
0.175--0.2	2.04333e-006
0.2--0.225	1.94956e-006
0.225--0.25	2.47608e-006
0.25--0.275	2.43756e-006
0.275--0.3	2.82775e-006
0.3--0.325	2.56352e-006
0.325--0.35	2.95023e-006
0.35--0.375	3.0606e-006
0.375--0.4	3.00618e-006
0.4--0.425	3.42337e-006
0.425--0.45	3.44581e-006
0.45--0.475	3.56577e-006
0.475--0.5	3.63335e-006
0.5--0.525	3.60679e-006
0.525--0.55	3.39828e-006
0.55--0.575	3.26948e-006
0.575--0.6	3.12721e-006
0.6--0.625	3.0932e-006
0.625--0.65	3.08748e-006
0.65--0.675	3.00914e-006
0.675--0.7	2.80837e-006
0.7--0.725	2.61673e-006
0.725--0.75	2.62041e-006
0.75--0.775	2.40887e-006
0.775--0.8	2.36505e-006
0.8--0.825	2.21121e-006
0.825--0.85	2.20075e-006
0.85--0.875	1.91238e-006
0.875--0.9	1.86243e-006
0.9--0.925	1.74384e-006
0.925--0.95	1.74375e-006
0.95--0.975	1.5218e-006
0.975--1	1.46667e-006
1--1.025	1.40779e-006
1.025--1.05	1.32733e-006
1.05--1.075	1.22137e-006
1.075--1.1	1.32193e-006
1.1--1.125	1.01262e-006
1.125--1.15	8.67109e-007
1.15--1.175	9.00141e-007
1.175--1.2	8.2253e-007
1.2--1.225	8.36621e-007
1.225--1.25	6.75373e-007
1.25--1.275	7.23265e-007
1.275--1.3	6.84223e-007
1.3--1.325	5.79309e-007
1.325--1.35	6.85933e-007
1.35--1.375	4.78685e-007
1.375--1.4	4.07592e-007
1.4--1.425	4.69671e-007
1.425--1.45	4.03989e-007
1.45--1.475	3.49652e-007
1.475--1.5	3.65195e-007
1.5--1.525	4.24364e-007
1.525--1.55	4.19048e-007
1.55--1.575	0
1.575--1.6	0
1.6--1.625	0
1.625--1.65	0
1.65--1.675	0
1.675--1.7	0
1.7--1.725	0
1.725--1.75	0
1.75--1.775	0
1.775--1.8	0
1.8--1.825	0
1.825--1.85	0
1.85--1.875	0
1.875--1.9	0
1.9--1.925	0
1.925--1.95	0
1.95--1.975	0
1.975--2	0
2--2.025	0
2.025--2.05	0
2.05--2.075	0
2.075--2.1	0
2.1--2.125	0
2.125--2.15	0
2.15--2.175	0
2.175--2.2	0
2.2--2.225	0
2.225--2.25	0
2.25--2.275	0
2.275--2.3	0
2.3--2.325	0
2.325--2.35	0
2.35--2.375	0
2.375--2.4	0
2.4--2.425	0
2.425--2.45	0
2.45--2.475	0
2.475--2.5	0
2.5--2.525	0
2.525--2.55	0
2.55--2.575	0
2.575--2.6	0
2.6--2.625	0
2.625--2.65	0
2.65--2.675	0
2.675--2.7	0
2.7--2.725	0
2.725--2.75	0
2.75--2.775	0
2.775--2.8	0
2.8--2.825	0
2.825--2.85	0
2.85--2.875	0
2.875--2.9	0
2.9--2.925	0
2.925--2.95	0
2.95--2.975	0
2.975--3	0
3--3.025	0
3.025--3.05	0
3.05--3.075	0
3.075--3.1	0
3.1--3.125	0
3.125--3.15	0
3.15--3.175	0
3.175--3.2	0
3.2--3.225	0
3.225--3.25	0
3.25--3.275	0
3.275--3.3	0
3.3--3.325	0
3.325--3.35	0
3.35--3.375	0
3.375--3.4	0
3.4--3.425	0
3.425--3.45	0
3.45--3.475	0
3.475--3.5	0
3.5--3.525	0
3.525--3.55	0
3.55--3.575	0
3.575--3.6	0
3.6--3.625	0
3.625--3.65	0
3.65--3.675	0
3.675--3.7	0
3.7--3.725	0
3.725--3.75	0
3.75--3.775	0
3.775--3.8	0
3.8--3.825	0
3.825--3.85	0
3.85--3.875	0
3.875--3.9	0
3.9--3.925	0
3.925--3.95	0
3.95--3.975	0
1.5<pT<2.0 GeV/c
had w/ #rho broadening
0--0.025	0.000617514
0.025--0.05	2.08139e-005
0.05--0.075	1.07722e-005
0.075--0.1	5.53385e-006
0.1--0.125	5.41019e-006
0.125--0.15	3.4224e-006
0.15--0.175	3.29751e-006
0.175--0.2	2.58917e-006
0.2--0.225	2.42065e-006
0.225--0.25	2.12681e-006
0.25--0.275	2.08289e-006
0.275--0.3	1.81205e-006
0.3--0.325	1.67061e-006
0.325--0.35	1.82189e-006
0.35--0.375	1.82065e-006
0.375--0.4	1.69384e-006
0.4--0.425	1.76281e-006
0.425--0.45	1.70874e-006
0.45--0.475	1.71471e-006
0.475--0.5	1.78769e-006
0.5--0.525	1.7837e-006
0.525--0.55	1.89697e-006
0.55--0.575	2.02286e-006
0.575--0.6	2.09726e-006
0.6--0.625	2.3038e-006
0.625--0.65	2.55801e-006
0.65--0.675	2.74009e-006
0.675--0.7	2.98012e-006
0.7--0.725	3.28282e-006
0.725--0.75	3.47989e-006
0.75--0.775	3.52875e-006
0.775--0.8	3.24936e-006
0.8--0.825	2.49704e-006
0.825--0.85	1.91222e-006
0.85--0.875	1.5907e-006
0.875--0.9	1.22291e-006
0.9--0.925	8.80926e-007
0.925--0.95	8.06107e-007
0.95--0.975	8.48217e-007
0.975--1	1.12737e-006
1--1.025	3.3804e-006
1.025--1.05	1.82884e-006
1.05--1.075	6.64966e-007
1.075--1.1	4.31029e-007
1.1--1.125	3.76598e-007
1.125--1.15	3.24017e-007
1.15--1.175	3.12974e-007
1.175--1.2	2.99666e-007
1.2--1.225	3.53566e-007
1.225--1.25	2.86222e-007
1.25--1.275	2.76314e-007
1.275--1.3	1.96356e-007
1.3--1.325	2.22703e-007
1.325--1.35	2.16351e-007
1.35--1.375	1.6781e-007
1.375--1.4	1.47339e-007
1.4--1.425	1.60705e-007
1.425--1.45	1.4233e-007
1.45--1.475	1.17915e-007
1.475--1.5	1.14384e-007
1.5--1.525	1.18874e-007
1.525--1.55	1.04813e-007
1.55--1.575	0
1.575--1.6	0
1.6--1.625	0
1.625--1.65	0
1.65--1.675	0
1.675--1.7	0
1.7--1.725	0
1.725--1.75	0
1.75--1.775	0
1.775--1.8	0
1.8--1.825	0
1.825--1.85	0
1.85--1.875	0
1.875--1.9	0
1.9--1.925	0
1.925--1.95	0
1.95--1.975	0
1.975--2	0
2--2.025	0
2.025--2.05	0
2.05--2.075	0
2.075--2.1	0
2.1--2.125	0
2.125--2.15	0
2.15--2.175	0
2.175--2.2	0
2.2--2.225	0
2.225--2.25	0
2.25--2.275	0
2.275--2.3	0
2.3--2.325	0
2.325--2.35	0
2.35--2.375	0
2.375--2.4	0
2.4--2.425	0
2.425--2.45	0
2.45--2.475	0
2.475--2.5	0
2.5--2.525	0
2.525--2.55	0
2.55--2.575	0
2.575--2.6	0
2.6--2.625	0
2.625--2.65	0
2.65--2.675	0
2.675--2.7	0
2.7--2.725	0
2.725--2.75	0
2.75--2.775	0
2.775--2.8	0
2.8--2.825	0
2.825--2.85	0
2.85--2.875	0
2.875--2.9	0
2.9--2.925	0
2.925--2.95	0
2.95--2.975	0
2.975--3	0
3--3.025	0
3.025--3.05	0
3.05--3.075	0
3.075--3.1	0
3.1--3.125	0
3.125--3.15	0
3.15--3.175	0
3.175--3.2	0
3.2--3.225	0
3.225--3.25	0
3.25--3.275	0
3.275--3.3	0
3.3--3.325	0
3.325--3.35	0
3.35--3.375	0
3.375--3.4	0
3.4--3.425	0
3.425--3.45	0
3.45--3.475	0
3.475--3.5	0
3.5--3.525	0
3.525--3.55	0
3.55--3.575	0
3.575--3.6	0
3.6--3.625	0
3.625--3.65	0
3.65--3.675	0
3.675--3.7	0
3.7--3.725	0
3.725--3.75	0
3.75--3.775	0
3.775--3.8	0
3.8--3.825	0
3.825--3.85	0
3.85--3.875	0
3.875--3.9	0
3.9--3.925	0
3.925--3.95	0
3.95--3.975	0
had/ #rho dropping)
0--0.025	0.000145994
0.025--0.05	4.98045e-006
0.05--0.075	2.64851e-006
0.075--0.1	1.45364e-006
0.1--0.125	1.42794e-006
0.125--0.15	1.0949e-006
0.15--0.175	1.06751e-006
0.175--0.2	2.43484e-006
0.2--0.225	2.32144e-006
0.225--0.25	9.17342e-007
0.25--0.275	8.97654e-007
0.275--0.3	1.23967e-006
0.3--0.325	1.16549e-006
0.325--0.35	1.96076e-006
0.35--0.375	1.88519e-006
0.375--0.4	2.49824e-006
0.4--0.425	2.57021e-006
0.425--0.45	2.62975e-006
0.45--0.475	2.86764e-006
0.475--0.5	3.13894e-006
0.5--0.525	3.14764e-006
0.525--0.55	3.36924e-006
0.55--0.575	3.64892e-006
0.575--0.6	3.64282e-006
0.6--0.625	3.5896e-006
0.625--0.65	3.54345e-006
0.65--0.675	3.03227e-006
0.675--0.7	2.52715e-006
0.7--0.725	1.73818e-006
0.725--0.75	9.35017e-007
0.75--0.775	5.89254e-007
0.775--0.8	4.19063e-007
0.8--0.825	3.24423e-007
0.825--0.85	3.32547e-007
0.85--0.875	8.44627e-007
0.875--0.9	6.17291e-007
0.9--0.925	5.67362e-007
0.925--0.95	8.22156e-007
0.95--0.975	1.57833e-006
0.975--1	2.32108e-006
1--1.025	9.55926e-007
1.025--1.05	2.92872e-007
1.05--1.075	2.2849e-007
1.075--1.1	2.17942e-007
1.1--1.125	2.15112e-007
1.125--1.15	2.41851e-007
1.15--1.175	2.29638e-007
1.175--1.2	2.35866e-007
1.2--1.225	2.6653e-007
1.225--1.25	2.44631e-007
1.25--1.275	2.18158e-007
1.275--1.3	1.76009e-007
1.3--1.325	1.9964e-007
1.325--1.35	1.91952e-007
1.35--1.375	1.4683e-007
1.375--1.4	1.37021e-007
1.4--1.425	1.43696e-007
1.425--1.45	1.41167e-007
1.45--1.475	1.06e-007
1.475--1.5	1.06855e-007
1.5--1.525	1.05452e-007
1.525--1.55	9.81826e-008
1.55--1.575	0
1.575--1.6	0
1.6--1.625	0
1.625--1.65	0
1.65--1.675	0
1.675--1.7	0
1.7--1.725	0
1.725--1.75	0
1.75--1.775	0
1.775--1.8	0
1.8--1.825	0
1.825--1.85	0
1.85--1.875	0
1.875--1.9	0
1.9--1.925	0
1.925--1.95	0
1.95--1.975	0
1.975--2	0
2--2.025	0
2.025--2.05	0
2.05--2.075	0
2.075--2.1	0
2.1--2.125	0
2.125--2.15	0
2.15--2.175	0
2.175--2.2	0
2.2--2.225	0
2.225--2.25	0
2.25--2.275	0
2.275--2.3	0
2.3--2.325	0
2.325--2.35	0
2.35--2.375	0
2.375--2.4	0
2.4--2.425	0
2.425--2.45	0
2.45--2.475	0
2.475--2.5	0
2.5--2.525	0
2.525--2.55	0
2.55--2.575	0
2.575--2.6	0
2.6--2.625	0
2.625--2.65	0
2.65--2.675	0
2.675--2.7	0
2.7--2.725	0
2.725--2.75	0
2.75--2.775	0
2.775--2.8	0
2.8--2.825	0
2.825--2.85	0
2.85--2.875	0
2.875--2.9	0
2.9--2.925	0
2.925--2.95	0
2.95--2.975	0
2.975--3	0
3--3.025	0
3.025--3.05	0
3.05--3.075	0
3.075--3.1	0
3.1--3.125	0
3.125--3.15	0
3.15--3.175	0
3.175--3.2	0
3.2--3.225	0
3.225--3.25	0
3.25--3.275	0
3.275--3.3	0
3.3--3.325	0
3.325--3.35	0
3.35--3.375	0
3.375--3.4	0
3.4--3.425	0
3.425--3.45	0
3.45--3.475	0
3.475--3.5	0
3.5--3.525	0
3.525--3.55	0
3.55--3.575	0
3.575--3.6	0
3.6--3.625	0
3.625--3.65	0
3.65--3.675	0
3.675--3.7	0
3.7--3.725	0
3.725--3.75	0
3.75--3.775	0
3.775--3.8	0
3.8--3.825	0
3.825--3.85	0
3.85--3.875	0
3.875--3.9	0
3.9--3.925	0
3.925--3.95	0
3.95--3.975	0
partonic yield (PY)
0--0.025	3.70032e-009
0.025--0.05	2.02132e-007
0.05--0.075	2.0484e-007
0.075--0.1	4.09438e-007
0.1--0.125	3.82032e-007
0.125--0.15	5.45408e-007
0.15--0.175	5.4355e-007
0.175--0.2	6.87112e-007
0.2--0.225	6.4833e-007
0.225--0.25	7.7846e-007
0.25--0.275	7.802e-007
0.275--0.3	9.03528e-007
0.3--0.325	8.41547e-007
0.325--0.35	9.46059e-007
0.35--0.375	9.34635e-007
0.375--0.4	9.70386e-007
0.4--0.425	9.78887e-007
0.425--0.45	9.32178e-007
0.45--0.475	9.28395e-007
0.475--0.5	9.51542e-007
0.5--0.525	9.08766e-007
0.525--0.55	8.91878e-007
0.55--0.575	8.83126e-007
0.575--0.6	8.54582e-007
0.6--0.625	8.39558e-007
0.625--0.65	8.09069e-007
0.65--0.675	7.78678e-007
0.675--0.7	7.31764e-007
0.7--0.725	6.92951e-007
0.725--0.75	6.80929e-007
0.75--0.775	6.44416e-007
0.775--0.8	6.11108e-007
0.8--0.825	5.64698e-007
0.825--0.85	5.6485e-007
0.85--0.875	5.61408e-007
0.875--0.9	5.31334e-007
0.9--0.925	4.7267e-007
0.925--0.95	4.63593e-007
0.95--0.975	4.41898e-007
0.975--1	4.00922e-007
1--1.025	3.99279e-007
1.025--1.05	3.78406e-007
1.05--1.075	3.54598e-007
1.075--1.1	3.296e-007
1.1--1.125	3.05456e-007
1.125--1.15	3.14513e-007
1.15--1.175	3.00797e-007
1.175--1.2	2.60292e-007
1.2--1.225	3.1149e-007
1.225--1.25	2.53233e-007
1.25--1.275	2.28911e-007
1.275--1.3	1.81434e-007
1.3--1.325	2.05075e-007
1.325--1.35	2.05325e-007
1.35--1.375	1.6416e-007
1.375--1.4	1.47706e-007
1.4--1.425	1.54895e-007
1.425--1.45	1.46533e-007
1.45--1.475	1.31239e-007
1.475--1.5	1.31718e-007
1.5--1.525	1.28812e-007
1.525--1.55	1.17981e-007
1.55--1.575	0
1.575--1.6	0
1.6--1.625	0
1.625--1.65	0
1.65--1.675	0
1.675--1.7	0
1.7--1.725	0
1.725--1.75	0
1.75--1.775	0
1.775--1.8	0
1.8--1.825	0
1.825--1.85	0
1.85--1.875	0
1.875--1.9	0
1.9--1.925	0
1.925--1.95	0
1.95--1.975	0
1.975--2	0
2--2.025	0
2.025--2.05	0
2.05--2.075	0
2.075--2.1	0
2.1--2.125	0
2.125--2.15	0
2.15--2.175	0
2.175--2.2	0
2.2--2.225	0
2.225--2.25	0
2.25--2.275	0
2.275--2.3	0
2.3--2.325	0
2.325--2.35	0
2.35--2.375	0
2.375--2.4	0
2.4--2.425	0
2.425--2.45	0
2.45--2.475	0
2.475--2.5	0
2.5--2.525	0
2.525--2.55	0
2.55--2.575	0
2.575--2.6	0
2.6--2.625	0
2.625--2.65	0
2.65--2.675	0
2.675--2.7	0
2.7--2.725	0
2.725--2.75	0
2.75--2.775	0
2.775--2.8	0
2.8--2.825	0
2.825--2.85	0
2.85--2.875	0
2.875--2.9	0
2.9--2.925	0
2.925--2.95	0
2.95--2.975	0
2.975--3	0
3--3.025	0
3.025--3.05	0
3.05--3.075	0
3.075--3.1	0
3.1--3.125	0
3.125--3.15	0
3.15--3.175	0
3.175--3.2	0
3.2--3.225	0
3.225--3.25	0
3.25--3.275	0
3.275--3.3	0
3.3--3.325	0
3.325--3.35	0
3.35--3.375	0
3.375--3.4	0
3.4--3.425	0
3.425--3.45	0
3.45--3.475	0
3.475--3.5	0
3.5--3.525	0
3.525--3.55	0
3.55--3.575	0
3.575--3.6	0
3.6--3.625	0
3.625--3.65	0
3.65--3.675	0
3.675--3.7	0
3.7--3.725	0
3.725--3.75	0
3.75--3.775	0
3.775--3.8	0
3.8--3.825	0
3.825--3.85	0
3.85--3.875	0
3.875--3.9	0
3.9--3.925	0
3.925--3.95	0
3.95--3.975	0
