Figure 43: invariant mass spectrum of e+e- pairs in MB Au+Au for different pt ranges compared to predictions from Kevin Dusling

data: as in Fig.29


0<pT<0.5 GeV/c
had w/ #rho broadening
0--0.02	1.82386e-006
0.02--0.04	1.31678e-006
0.04--0.06	1.10595e-006
0.06--0.08	9.93035e-007
0.08--0.1	1.17699e-006
0.1--0.12	7.37522e-007
0.12--0.14	6.78488e-007
0.14--0.16	5.63484e-007
0.16--0.18	4.87986e-007
0.18--0.2	5.31242e-007
0.2--0.22	5.35616e-007
0.22--0.24	5.57604e-007
0.24--0.26	3.83217e-007
0.26--0.28	5.87848e-007
0.28--0.3	8.1478e-007
0.3--0.32	6.98913e-007
0.32--0.34	8.88969e-007
0.34--0.36	1.26587e-006
0.36--0.38	1.39068e-006
0.38--0.4	1.55564e-006
0.4--0.42	1.76694e-006
0.42--0.44	1.98412e-006
0.44--0.46	2.22201e-006
0.46--0.48	2.1598e-006
0.48--0.5	2.79722e-006
0.5--0.52	2.40789e-006
0.52--0.54	2.24963e-006
0.54--0.56	2.76615e-006
0.56--0.58	2.70338e-006
0.58--0.6	2.98638e-006
0.6--0.62	3.23742e-006
0.62--0.64	3.48641e-006
0.64--0.66	4.13823e-006
0.66--0.68	4.69169e-006
0.68--0.7	5.57455e-006
0.7--0.72	6.14185e-006
0.72--0.74	6.6549e-006
0.74--0.76	6.80662e-006
0.76--0.78	5.92101e-006
0.78--0.8	4.97489e-006
0.8--0.82	3.41305e-006
0.82--0.84	2.39593e-006
0.84--0.86	2.002e-006
0.86--0.88	1.45322e-006
0.88--0.9	1.17775e-006
0.9--0.92	8.34143e-007
0.92--0.94	6.31336e-007
0.94--0.96	6.29985e-007
0.96--0.98	5.356e-007
0.98--1	4.30448e-007
1--1.02	3.82919e-007
1.02--1.04	3.17035e-007
1.04--1.06	2.63471e-007
1.06--1.08	2.40611e-007
1.08--1.1	1.72971e-007
1.1--1.12	1.39766e-007
1.12--1.14	1.36414e-007
1.14--1.16	1.10604e-007
1.16--1.18	9.69025e-008
1.18--1.2	6.90487e-008
1.2--1.22	6.40676e-008
1.22--1.24	6.01719e-008
1.24--1.26	6.69368e-008
1.26--1.28	5.96703e-008
1.28--1.3	4.67849e-008
1.3--1.32	4.12949e-008
1.32--1.34	4.31799e-008
1.34--1.36	3.79456e-008
1.36--1.38	3.81608e-008
1.38--1.4	3.21238e-008
1.4--1.42	2.86243e-008
1.42--1.44	2.59403e-008
1.44--1.46	2.62125e-008
1.46--1.48	1.75728e-008
1.48--1.5	1.60509e-008
1.5--1.52	1.68834e-008
1.52--1.54	1.49095e-008
1.54--1.56	1.32964e-008
1.56--1.58	1.03044e-008
1.58--1.6	9.42893e-009
1.6--1.62	9.60776e-009
1.62--1.64	7.71388e-009
1.64--1.66	5.1565e-009
1.66--1.68	6.80401e-009
1.68--1.7	5.88465e-009
1.7--1.72	5.27464e-009
1.72--1.74	3.87653e-009
1.74--1.76	3.42151e-009
1.76--1.78	3.02357e-009
1.78--1.8	2.85357e-009
1.8--1.82	2.38939e-009
1.82--1.84	2.09422e-009
1.84--1.86	1.73095e-009
1.86--1.88	1.68416e-009
1.88--1.9	1.54774e-009
1.9--1.92	1.39786e-009
1.92--1.94	1.14963e-009
1.94--1.96	9.17211e-010
1.96--1.98	9.09449e-010
1.98--2	7.49014e-010
2--2.02	0
2.02--2.04	0
2.04--2.06	0
2.06--2.08	0
2.08--2.1	0
2.1--2.12	0
2.12--2.14	0
2.14--2.16	0
2.16--2.18	0
2.18--2.2	0
2.2--2.22	0
2.22--2.24	0
2.24--2.26	0
2.26--2.28	0
2.28--2.3	0
2.3--2.32	0
2.32--2.34	0
2.34--2.36	0
2.36--2.38	0
2.38--2.4	0
2.4--2.42	0
2.42--2.44	0
2.44--2.46	0
2.46--2.48	0
2.48--2.5	0
2.5--2.52	0
2.52--2.54	0
2.54--2.56	0
2.56--2.58	0
2.58--2.6	0
2.6--2.62	0
2.62--2.64	0
2.64--2.66	0
2.66--2.68	0
2.68--2.7	0
2.7--2.72	0
2.72--2.74	0
2.74--2.76	0
2.76--2.78	0
2.78--2.8	0
2.8--2.82	0
2.82--2.84	0
2.84--2.86	0
2.86--2.88	0
2.88--2.9	0
2.9--2.92	0
2.92--2.94	0
2.94--2.96	0
2.96--2.98	0
2.98--3	0
3--3.02	0
3.02--3.04	0
3.04--3.06	0
3.06--3.08	0
3.08--3.1	0
3.1--3.12	0
3.12--3.14	0
3.14--3.16	0
3.16--3.18	0
3.18--3.2	0
3.2--3.22	0
3.22--3.24	0
3.24--3.26	0
3.26--3.28	0
3.28--3.3	0
3.3--3.32	0
3.32--3.34	0
3.34--3.36	0
3.36--3.38	0
3.38--3.4	0
3.4--3.42	0
3.42--3.44	0
3.44--3.46	0
3.46--3.48	0
3.48--3.5	0
3.5--3.52	0
3.52--3.54	0
3.54--3.56	0
3.56--3.58	0
3.58--3.6	0
3.6--3.62	0
3.62--3.64	0
3.64--3.66	0
3.66--3.68	0
3.68--3.7	0
3.7--3.72	0
3.72--3.74	0
3.74--3.76	0
3.76--3.78	0
3.78--3.8	0
3.8--3.82	0
3.82--3.84	0
3.84--3.86	0
3.86--3.88	0
3.88--3.9	0
3.9--3.92	0
3.92--3.94	0
3.94--3.96	0
3.96--3.98	0
partonic yield (PY)
0--0.02	1.50239e-010
0.02--0.04	1.04651e-009
0.04--0.06	2.68087e-009
0.06--0.08	5.18331e-009
0.08--0.1	1.10959e-008
0.1--0.12	1.12512e-008
0.12--0.14	1.5504e-008
0.14--0.16	1.8252e-008
0.16--0.18	2.14436e-008
0.18--0.2	3.0503e-008
0.2--0.22	3.92474e-008
0.22--0.24	5.11214e-008
0.24--0.26	4.29183e-008
0.26--0.28	7.94505e-008
0.28--0.3	1.31023e-007
0.3--0.32	1.28842e-007
0.32--0.34	1.85261e-007
0.34--0.36	2.94293e-007
0.36--0.38	3.53937e-007
0.38--0.4	4.26928e-007
0.4--0.42	5.16774e-007
0.42--0.44	6.12158e-007
0.44--0.46	7.08974e-007
0.46--0.48	7.06836e-007
0.48--0.5	9.24359e-007
0.5--0.52	8.5374e-007
0.52--0.54	7.68726e-007
0.54--0.56	9.00744e-007
0.56--0.58	8.30114e-007
0.58--0.6	8.54651e-007
0.6--0.62	8.46557e-007
0.62--0.64	8.16819e-007
0.64--0.66	8.51702e-007
0.66--0.68	8.28427e-007
0.68--0.7	8.30845e-007
0.7--0.72	7.72216e-007
0.72--0.74	7.30398e-007
0.74--0.76	7.13962e-007
0.76--0.78	6.76728e-007
0.78--0.8	6.98579e-007
0.8--0.82	6.29659e-007
0.82--0.84	5.90466e-007
0.84--0.86	6.51231e-007
0.86--0.88	6.09763e-007
0.88--0.9	6.22237e-007
0.9--0.92	5.43599e-007
0.92--0.94	4.98358e-007
0.94--0.96	5.95724e-007
0.96--0.98	6.01374e-007
0.98--1	5.69771e-007
1--1.02	5.95172e-007
1.02--1.04	5.77006e-007
1.04--1.06	5.59996e-007
1.06--1.08	5.95006e-007
1.08--1.1	4.96616e-007
1.1--1.12	4.62855e-007
1.12--1.14	5.19267e-007
1.14--1.16	4.80584e-007
1.16--1.18	4.77348e-007
1.18--1.2	3.8219e-007
1.2--1.22	3.9536e-007
1.22--1.24	4.10322e-007
1.24--1.26	5.00013e-007
1.26--1.28	4.83981e-007
1.28--1.3	4.0873e-007
1.3--1.32	3.8737e-007
1.32--1.34	4.32697e-007
1.34--1.36	4.04748e-007
1.36--1.38	4.33105e-007
1.38--1.4	3.88749e-007
1.4--1.42	3.70213e-007
1.42--1.44	3.59245e-007
1.44--1.46	3.89716e-007
1.46--1.48	2.81298e-007
1.48--1.5	2.77524e-007
1.5--1.52	3.15603e-007
1.52--1.54	3.02789e-007
1.54--1.56	2.94069e-007
1.56--1.58	2.48186e-007
1.58--1.6	2.47866e-007
1.6--1.62	2.76376e-007
1.62--1.64	2.42717e-007
1.64--1.66	1.77864e-007
1.66--1.68	2.57357e-007
1.68--1.7	2.44527e-007
1.7--1.72	2.40563e-007
1.72--1.74	1.94185e-007
1.74--1.76	1.88482e-007
1.76--1.78	1.82992e-007
1.78--1.8	1.89952e-007
1.8--1.82	1.74844e-007
1.82--1.84	1.68536e-007
1.84--1.86	1.53173e-007
1.86--1.88	1.63942e-007
1.88--1.9	1.65642e-007
1.9--1.92	1.64514e-007
1.92--1.94	1.48714e-007
1.94--1.96	1.30486e-007
1.96--1.98	1.42165e-007
1.98--2	1.28573e-007
2--2.02	1.22608e-007
2.02--2.04	1.20705e-007
2.04--2.06	1.16242e-007
2.06--2.08	1.1189e-007
2.08--2.1	9.63031e-008
2.1--2.12	1.11099e-007
2.12--2.14	1.03939e-007
2.14--2.16	9.71611e-008
2.16--2.18	1.02619e-007
2.18--2.2	8.38083e-008
2.2--2.22	7.81797e-008
2.22--2.24	7.55078e-008
2.24--2.26	7.95154e-008
2.26--2.28	7.17865e-008
2.28--2.3	7.1394e-008
2.3--2.32	6.74063e-008
2.32--2.34	5.72143e-008
2.34--2.36	6.01157e-008
2.36--2.38	6.16809e-008
2.38--2.4	5.77635e-008
2.4--2.42	4.7475e-008
2.42--2.44	5.46033e-008
2.44--2.46	4.52943e-008
2.46--2.48	4.54238e-008
2.48--2.5	4.49027e-008
2.5--2.52	4.27419e-008
2.52--2.54	4.1411e-008
2.54--2.56	4.77187e-008
2.56--2.58	3.76853e-008
2.58--2.6	3.89087e-008
2.6--2.62	3.76072e-008
2.62--2.64	3.20613e-008
2.64--2.66	3.64305e-008
2.66--2.68	3.23975e-008
2.68--2.7	3.04981e-008
2.7--2.72	2.34561e-008
2.72--2.74	2.79274e-008
2.74--2.76	2.52641e-008
2.76--2.78	2.83288e-008
2.78--2.8	2.4178e-008
2.8--2.82	2.73685e-008
2.82--2.84	2.39516e-008
2.84--2.86	2.56364e-008
2.86--2.88	2.18082e-008
2.88--2.9	2.12886e-008
2.9--2.92	2.05802e-008
2.92--2.94	1.88322e-008
2.94--2.96	1.86429e-008
2.96--2.98	1.59944e-008
2.98--3	1.61015e-008
3--3.02	0
3.02--3.04	0
3.04--3.06	0
3.06--3.08	0
3.08--3.1	0
3.1--3.12	0
3.12--3.14	0
3.14--3.16	0
3.16--3.18	0
3.18--3.2	0
3.2--3.22	0
3.22--3.24	0
3.24--3.26	0
3.26--3.28	0
3.28--3.3	0
3.3--3.32	0
3.32--3.34	0
3.34--3.36	0
3.36--3.38	0
3.38--3.4	0
3.4--3.42	0
3.42--3.44	0
3.44--3.46	0
3.46--3.48	0
3.48--3.5	0
3.5--3.52	0
3.52--3.54	0
3.54--3.56	0
3.56--3.58	0
3.58--3.6	0
3.6--3.62	0
3.62--3.64	0
3.64--3.66	0
3.66--3.68	0
3.68--3.7	0
3.7--3.72	0
3.72--3.74	0
3.74--3.76	0
3.76--3.78	0
3.78--3.8	0
3.8--3.82	0
3.82--3.84	0
3.84--3.86	0
3.86--3.88	0
3.88--3.9	0
3.9--3.92	0
3.92--3.94	0
3.94--3.96	0
3.96--3.98	0
0.5<pT<1.0 GeV/c
had w/ #rho broadening
0--0.02	4.67832e-006
0.02--0.04	3.72403e-006
0.04--0.06	3.63736e-006
0.06--0.08	3.55299e-006
0.08--0.1	3.39528e-006
0.1--0.12	3.34128e-006
0.12--0.14	3.49665e-006
0.14--0.16	3.28709e-006
0.16--0.18	3.74624e-006
0.18--0.2	4.0435e-006
0.2--0.22	3.76124e-006
0.22--0.24	3.99288e-006
0.24--0.26	4.55835e-006
0.26--0.28	4.53225e-006
0.28--0.3	4.30275e-006
0.3--0.32	4.69148e-006
0.32--0.34	5.11406e-006
0.34--0.36	5.69544e-006
0.36--0.38	5.65031e-006
0.38--0.4	5.68361e-006
0.4--0.42	6.03897e-006
0.42--0.44	6.41647e-006
0.44--0.46	6.75481e-006
0.46--0.48	7.47864e-006
0.48--0.5	7.37709e-006
0.5--0.52	7.7351e-006
0.52--0.54	7.75491e-006
0.54--0.56	8.8573e-006
0.56--0.58	9.6233e-006
0.58--0.6	1.04999e-005
0.6--0.62	1.16037e-005
0.62--0.64	1.25565e-005
0.64--0.66	1.46577e-005
0.66--0.68	1.69798e-005
0.68--0.7	1.9713e-005
0.7--0.72	2.40707e-005
0.72--0.74	2.69133e-005
0.74--0.76	2.7908e-005
0.76--0.78	2.55533e-005
0.78--0.8	2.08589e-005
0.8--0.82	1.5097e-005
0.82--0.84	1.07919e-005
0.84--0.86	8.76443e-006
0.86--0.88	6.0091e-006
0.88--0.9	4.68222e-006
0.9--0.92	3.88664e-006
0.92--0.94	2.95867e-006
0.94--0.96	2.52016e-006
0.96--0.98	1.99111e-006
0.98--1	1.6067e-006
1--1.02	1.34398e-006
1.02--1.04	1.12814e-006
1.04--1.06	8.98775e-007
1.06--1.08	8.14514e-007
1.08--1.1	5.18719e-007
1.1--1.12	5.05066e-007
1.12--1.14	3.74902e-007
1.14--1.16	3.9905e-007
1.16--1.18	3.31361e-007
1.18--1.2	2.28108e-007
1.2--1.22	2.56222e-007
1.22--1.24	2.4732e-007
1.24--1.26	1.86667e-007
1.26--1.28	1.53765e-007
1.28--1.3	1.3466e-007
1.3--1.32	1.64061e-007
1.32--1.34	1.53795e-007
1.34--1.36	1.14936e-007
1.36--1.38	1.18874e-007
1.38--1.4	9.31986e-008
1.4--1.42	8.29884e-008
1.42--1.44	7.81538e-008
1.44--1.46	7.72694e-008
1.46--1.48	6.26193e-008
1.48--1.5	6.69692e-008
1.5--1.52	5.22759e-008
1.52--1.54	5.02888e-008
1.54--1.56	4.56416e-008
1.56--1.58	3.85897e-008
1.58--1.6	3.23501e-008
1.6--1.62	3.6851e-008
1.62--1.64	2.81689e-008
1.64--1.66	2.51933e-008
1.66--1.68	2.15951e-008
1.68--1.7	2.28038e-008
1.7--1.72	1.69506e-008
1.72--1.74	1.64628e-008
1.74--1.76	1.39301e-008
1.76--1.78	1.17084e-008
1.78--1.8	1.10019e-008
1.8--1.82	9.22225e-009
1.82--1.84	7.72155e-009
1.84--1.86	7.50822e-009
1.86--1.88	6.18844e-009
1.88--1.9	5.36915e-009
1.9--1.92	5.07623e-009
1.92--1.94	5.00151e-009
1.94--1.96	3.61538e-009
1.96--1.98	3.35622e-009
1.98--2	2.65387e-009
2--2.02	0
2.02--2.04	0
2.04--2.06	0
2.06--2.08	0
2.08--2.1	0
2.1--2.12	0
2.12--2.14	0
2.14--2.16	0
2.16--2.18	0
2.18--2.2	0
2.2--2.22	0
2.22--2.24	0
2.24--2.26	0
2.26--2.28	0
2.28--2.3	0
2.3--2.32	0
2.32--2.34	0
2.34--2.36	0
2.36--2.38	0
2.38--2.4	0
2.4--2.42	0
2.42--2.44	0
2.44--2.46	0
2.46--2.48	0
2.48--2.5	0
2.5--2.52	0
2.52--2.54	0
2.54--2.56	0
2.56--2.58	0
2.58--2.6	0
2.6--2.62	0
2.62--2.64	0
2.64--2.66	0
2.66--2.68	0
2.68--2.7	0
2.7--2.72	0
2.72--2.74	0
2.74--2.76	0
2.76--2.78	0
2.78--2.8	0
2.8--2.82	0
2.82--2.84	0
2.84--2.86	0
2.86--2.88	0
2.88--2.9	0
2.9--2.92	0
2.92--2.94	0
2.94--2.96	0
2.96--2.98	0
2.98--3	0
3--3.02	0
3.02--3.04	0
3.04--3.06	0
3.06--3.08	0
3.08--3.1	0
3.1--3.12	0
3.12--3.14	0
3.14--3.16	0
3.16--3.18	0
3.18--3.2	0
3.2--3.22	0
3.22--3.24	0
3.24--3.26	0
3.26--3.28	0
3.28--3.3	0
3.3--3.32	0
3.32--3.34	0
3.34--3.36	0
3.36--3.38	0
3.38--3.4	0
3.4--3.42	0
3.42--3.44	0
3.44--3.46	0
3.46--3.48	0
3.48--3.5	0
3.5--3.52	0
3.52--3.54	0
3.54--3.56	0
3.56--3.58	0
3.58--3.6	0
3.6--3.62	0
3.62--3.64	0
3.64--3.66	0
3.66--3.68	0
3.68--3.7	0
3.7--3.72	0
3.72--3.74	0
3.74--3.76	0
3.76--3.78	0
3.78--3.8	0
3.8--3.82	0
3.82--3.84	0
3.84--3.86	0
3.86--3.88	0
3.88--3.9	0
3.9--3.92	0
3.92--3.94	0
3.94--3.96	0
3.96--3.98	0
partonic yield (PY)
0--0.02	6.68072e-010
0.02--0.04	4.9738e-009
0.04--0.06	1.43227e-008
0.06--0.08	2.9168e-008
0.08--0.1	4.86871e-008
0.1--0.12	7.67134e-008
0.12--0.14	1.15737e-007
0.14--0.16	1.50634e-007
0.16--0.18	2.27488e-007
0.18--0.2	3.12322e-007
0.2--0.22	3.65154e-007
0.22--0.24	4.71282e-007
0.24--0.26	6.50048e-007
0.26--0.28	7.53967e-007
0.28--0.3	8.37439e-007
0.3--0.32	1.03033e-006
0.32--0.34	1.25788e-006
0.34--0.36	1.53991e-006
0.36--0.38	1.64504e-006
0.38--0.4	1.7728e-006
0.4--0.42	1.99482e-006
0.42--0.44	2.21987e-006
0.44--0.46	2.42476e-006
0.46--0.48	2.72818e-006
0.48--0.5	2.71657e-006
0.5--0.52	2.97837e-006
0.52--0.54	2.90473e-006
0.54--0.56	3.18726e-006
0.56--0.58	3.28464e-006
0.58--0.6	3.33037e-006
0.6--0.62	3.37438e-006
0.62--0.64	3.2651e-006
0.64--0.66	3.33333e-006
0.66--0.68	3.30729e-006
0.68--0.7	3.21469e-006
0.7--0.72	3.29398e-006
0.72--0.74	3.19577e-006
0.74--0.76	3.14499e-006
0.76--0.78	3.11969e-006
0.78--0.8	3.1129e-006
0.8--0.82	2.94901e-006
0.82--0.84	2.80919e-006
0.84--0.86	3.01226e-006
0.86--0.88	2.66521e-006
0.88--0.9	2.61605e-006
0.9--0.92	2.68257e-006
0.92--0.94	2.47811e-006
0.94--0.96	2.52787e-006
0.96--0.98	2.37094e-006
0.98--1	2.2504e-006
1--1.02	2.21054e-006
1.02--1.04	2.17079e-006
1.04--1.06	2.01575e-006
1.06--1.08	2.12729e-006
1.08--1.1	1.56779e-006
1.1--1.12	1.7603e-006
1.12--1.14	1.49275e-006
1.14--1.16	1.81616e-006
1.16--1.18	1.7068e-006
1.18--1.2	1.32479e-006
1.2--1.22	1.65931e-006
1.22--1.24	1.77446e-006
1.24--1.26	1.46106e-006
1.26--1.28	1.31006e-006
1.28--1.3	1.23512e-006
1.3--1.32	1.61767e-006
1.32--1.34	1.62256e-006
1.34--1.36	1.28477e-006
1.36--1.38	1.42074e-006
1.38--1.4	1.18339e-006
1.4--1.42	1.12438e-006
1.42--1.44	1.13675e-006
1.44--1.46	1.20629e-006
1.46--1.48	1.05367e-006
1.48--1.5	1.21883e-006
1.5--1.52	1.02862e-006
1.52--1.54	1.07229e-006
1.54--1.56	1.05679e-006
1.56--1.58	9.77549e-007
1.58--1.6	8.94461e-007
1.6--1.62	1.10998e-006
1.62--1.64	9.30239e-007
1.64--1.66	9.12763e-007
1.66--1.68	8.559e-007
1.68--1.7	9.93526e-007
1.7--1.72	8.09523e-007
1.72--1.74	8.63231e-007
1.74--1.76	8.03389e-007
1.76--1.78	7.43224e-007
1.78--1.8	7.65677e-007
1.8--1.82	7.06948e-007
1.82--1.84	6.49785e-007
1.84--1.86	6.97008e-007
1.86--1.88	6.30941e-007
1.88--1.9	6.01542e-007
1.9--1.92	6.24359e-007
1.92--1.94	6.76293e-007
1.94--1.96	5.35751e-007
1.96--1.98	5.4737e-007
1.98--2	4.75738e-007
2--2.02	5.25818e-007
2.02--2.04	4.55081e-007
2.04--2.06	4.77616e-007
2.06--2.08	4.84675e-007
2.08--2.1	4.16291e-007
2.1--2.12	4.24183e-007
2.12--2.14	4.26818e-007
2.14--2.16	3.87465e-007
2.16--2.18	4.45219e-007
2.18--2.2	3.44559e-007
2.2--2.22	3.571e-007
2.22--2.24	4.00864e-007
2.24--2.26	2.7964e-007
2.26--2.28	3.10471e-007
2.28--2.3	3.41923e-007
2.3--2.32	3.41787e-007
2.32--2.34	3.23143e-007
2.34--2.36	2.66489e-007
2.36--2.38	2.54687e-007
2.38--2.4	2.54396e-007
2.4--2.42	2.56223e-007
2.42--2.44	2.38019e-007
2.44--2.46	2.52638e-007
2.46--2.48	2.36907e-007
2.48--2.5	2.02306e-007
2.5--2.52	2.08737e-007
2.52--2.54	1.954e-007
2.54--2.56	1.84836e-007
2.56--2.58	1.80964e-007
2.58--2.6	1.80213e-007
2.6--2.62	1.83752e-007
2.62--2.64	1.66777e-007
2.64--2.66	1.66428e-007
2.66--2.68	1.64919e-007
2.68--2.7	1.41662e-007
2.7--2.72	1.44256e-007
2.72--2.74	1.38556e-007
2.74--2.76	1.30964e-007
2.76--2.78	1.3674e-007
2.78--2.8	1.26894e-007
2.8--2.82	1.09927e-007
2.82--2.84	1.14684e-007
2.84--2.86	1.053e-007
2.86--2.88	1.22321e-007
2.88--2.9	9.43282e-008
2.9--2.92	9.76725e-008
2.92--2.94	1.0442e-007
2.94--2.96	1.03539e-007
2.96--2.98	9.02305e-008
2.98--3	9.37606e-008
3--3.02	0
3.02--3.04	0
3.04--3.06	0
3.06--3.08	0
3.08--3.1	0
3.1--3.12	0
3.12--3.14	0
3.14--3.16	0
3.16--3.18	0
3.18--3.2	0
3.2--3.22	0
3.22--3.24	0
3.24--3.26	0
3.26--3.28	0
3.28--3.3	0
3.3--3.32	0
3.32--3.34	0
3.34--3.36	0
3.36--3.38	0
3.38--3.4	0
3.4--3.42	0
3.42--3.44	0
3.44--3.46	0
3.46--3.48	0
3.48--3.5	0
3.5--3.52	0
3.52--3.54	0
3.54--3.56	0
3.56--3.58	0
3.58--3.6	0
3.6--3.62	0
3.62--3.64	0
3.64--3.66	0
3.66--3.68	0
3.68--3.7	0
3.7--3.72	0
3.72--3.74	0
3.74--3.76	0
3.76--3.78	0
3.78--3.8	0
3.8--3.82	0
3.82--3.84	0
3.84--3.86	0
3.86--3.88	0
3.88--3.9	0
3.9--3.92	0
3.92--3.94	0
3.94--3.96	0
3.96--3.98	0
1.0<pT<1.5 GeV/c
had w/ #rho broadening
0--0.02	5.64748e-006
0.02--0.04	4.54002e-006
0.04--0.06	4.6251e-006
0.06--0.08	4.67281e-006
0.08--0.1	4.50336e-006
0.1--0.12	4.3238e-006
0.12--0.14	4.0517e-006
0.14--0.16	3.8891e-006
0.16--0.18	3.77922e-006
0.18--0.2	3.74082e-006
0.2--0.22	3.47625e-006
0.22--0.24	3.58168e-006
0.24--0.26	3.57006e-006
0.26--0.28	3.33018e-006
0.28--0.3	3.51466e-006
0.3--0.32	3.20949e-006
0.32--0.34	3.15545e-006
0.34--0.36	3.6468e-006
0.36--0.38	3.39365e-006
0.38--0.4	3.26342e-006
0.4--0.42	3.79116e-006
0.42--0.44	3.83232e-006
0.44--0.46	4.1244e-006
0.46--0.48	4.14057e-006
0.48--0.5	4.556e-006
0.5--0.52	4.53611e-006
0.52--0.54	4.5813e-006
0.54--0.56	4.92119e-006
0.56--0.58	5.19196e-006
0.58--0.6	5.50704e-006
0.6--0.62	6.18546e-006
0.62--0.64	7.36087e-006
0.64--0.66	8.50479e-006
0.66--0.68	1.02438e-005
0.68--0.7	1.18473e-005
0.7--0.72	1.41231e-005
0.72--0.74	1.65073e-005
0.74--0.76	1.82578e-005
0.76--0.78	1.57719e-005
0.78--0.8	1.35643e-005
0.8--0.82	9.92407e-006
0.82--0.84	8.09289e-006
0.84--0.86	5.48038e-006
0.86--0.88	4.06734e-006
0.88--0.9	3.36969e-006
0.9--0.92	2.65005e-006
0.92--0.94	2.27617e-006
0.94--0.96	1.73818e-006
0.96--0.98	1.47218e-006
0.98--1	1.21658e-006
1--1.02	1.04804e-006
1.02--1.04	8.88213e-007
1.04--1.06	7.20105e-007
1.06--1.08	6.11204e-007
1.08--1.1	6.22299e-007
1.1--1.12	4.09549e-007
1.12--1.14	3.22653e-007
1.14--1.16	3.06675e-007
1.16--1.18	2.61492e-007
1.18--1.2	2.36215e-007
1.2--1.22	2.14739e-007
1.22--1.24	1.5991e-007
1.24--1.26	1.5748e-007
1.26--1.28	1.41571e-007
1.28--1.3	1.35e-007
1.3--1.32	1.00148e-007
1.32--1.34	1.20693e-007
1.34--1.36	9.94823e-008
1.36--1.38	8.3767e-008
1.38--1.4	6.58379e-008
1.4--1.42	7.33282e-008
1.42--1.44	5.43446e-008
1.44--1.46	5.22344e-008
1.46--1.48	5.1682e-008
1.48--1.5	4.76686e-008
1.5--1.52	4.82762e-008
1.52--1.54	4.52708e-008
1.54--1.56	3.72397e-008
1.56--1.58	3.0665e-008
1.58--1.6	2.96822e-008
1.6--1.62	2.38668e-008
1.62--1.64	2.6226e-008
1.64--1.66	2.40396e-008
1.66--1.68	2.0564e-008
1.68--1.7	1.5985e-008
1.7--1.72	1.54728e-008
1.72--1.74	1.36473e-008
1.74--1.76	1.20515e-008
1.76--1.78	1.24634e-008
1.78--1.8	8.49998e-009
1.8--1.82	7.34582e-009
1.82--1.84	7.59208e-009
1.84--1.86	6.26701e-009
1.86--1.88	6.75937e-009
1.88--1.9	5.69862e-009
1.9--1.92	4.73878e-009
1.92--1.94	4.24396e-009
1.94--1.96	3.98976e-009
1.96--1.98	3.24396e-009
1.98--2	3.024e-009
2--2.02	0
2.02--2.04	0
2.04--2.06	0
2.06--2.08	0
2.08--2.1	0
2.1--2.12	0
2.12--2.14	0
2.14--2.16	0
2.16--2.18	0
2.18--2.2	0
2.2--2.22	0
2.22--2.24	0
2.24--2.26	0
2.26--2.28	0
2.28--2.3	0
2.3--2.32	0
2.32--2.34	0
2.34--2.36	0
2.36--2.38	0
2.38--2.4	0
2.4--2.42	0
2.42--2.44	0
2.44--2.46	0
2.46--2.48	0
2.48--2.5	0
2.5--2.52	0
2.52--2.54	0
2.54--2.56	0
2.56--2.58	0
2.58--2.6	0
2.6--2.62	0
2.62--2.64	0
2.64--2.66	0
2.66--2.68	0
2.68--2.7	0
2.7--2.72	0
2.72--2.74	0
2.74--2.76	0
2.76--2.78	0
2.78--2.8	0
2.8--2.82	0
2.82--2.84	0
2.84--2.86	0
2.86--2.88	0
2.88--2.9	0
2.9--2.92	0
2.92--2.94	0
2.94--2.96	0
2.96--2.98	0
2.98--3	0
3--3.02	0
3.02--3.04	0
3.04--3.06	0
3.06--3.08	0
3.08--3.1	0
3.1--3.12	0
3.12--3.14	0
3.14--3.16	0
3.16--3.18	0
3.18--3.2	0
3.2--3.22	0
3.22--3.24	0
3.24--3.26	0
3.26--3.28	0
3.28--3.3	0
3.3--3.32	0
3.32--3.34	0
3.34--3.36	0
3.36--3.38	0
3.38--3.4	0
3.4--3.42	0
3.42--3.44	0
3.44--3.46	0
3.46--3.48	0
3.48--3.5	0
3.5--3.52	0
3.52--3.54	0
3.54--3.56	0
3.56--3.58	0
3.58--3.6	0
3.6--3.62	0
3.62--3.64	0
3.64--3.66	0
3.66--3.68	0
3.68--3.7	0
3.7--3.72	0
3.72--3.74	0
3.74--3.76	0
3.76--3.78	0
3.78--3.8	0
3.8--3.82	0
3.82--3.84	0
3.84--3.86	0
3.86--3.88	0
3.88--3.9	0
3.9--3.92	0
3.92--3.94	0
3.94--3.96	0
3.96--3.98	0
partonic yield (PY)
0--0.02	1.56996e-009
0.02--0.04	1.14242e-008
0.04--0.06	3.24986e-008
0.06--0.08	6.49462e-008
0.08--0.1	1.04379e-007
0.1--0.12	1.5094e-007
0.12--0.14	1.97657e-007
0.14--0.16	2.54647e-007
0.16--0.18	3.17794e-007
0.18--0.2	3.95074e-007
0.2--0.22	4.48123e-007
0.22--0.24	5.52469e-007
0.24--0.26	6.48811e-007
0.26--0.28	7.06291e-007
0.28--0.3	8.53267e-007
0.3--0.32	8.73625e-007
0.32--0.34	9.48684e-007
0.34--0.36	1.19857e-006
0.36--0.38	1.19479e-006
0.38--0.4	1.22614e-006
0.4--0.42	1.50235e-006
0.42--0.44	1.58975e-006
0.44--0.46	1.7558e-006
0.46--0.48	1.80138e-006
0.48--0.5	2.0065e-006
0.5--0.52	2.01614e-006
0.52--0.54	1.9996e-006
0.54--0.56	2.08443e-006
0.56--0.58	2.09432e-006
0.58--0.6	2.07147e-006
0.6--0.62	2.13607e-006
0.62--0.64	2.26452e-006
0.64--0.66	2.28544e-006
0.66--0.68	2.34224e-006
0.68--0.7	2.25528e-006
0.7--0.72	2.23971e-006
0.72--0.74	2.25461e-006
0.74--0.76	2.34787e-006
0.76--0.78	2.18354e-006
0.78--0.8	2.28321e-006
0.8--0.82	2.17566e-006
0.82--0.84	2.36195e-006
0.84--0.86	2.1071e-006
0.86--0.88	2.01549e-006
0.88--0.9	2.10224e-006
0.9--0.92	2.04753e-006
0.92--0.94	2.12585e-006
0.94--0.96	1.94852e-006
0.96--0.98	1.95686e-006
0.98--1	1.90717e-006
1--1.02	1.92998e-006
1.02--1.04	1.91052e-006
1.04--1.06	1.80592e-006
1.06--1.08	1.77714e-006
1.08--1.1	2.0859e-006
1.1--1.12	1.58493e-006
1.12--1.14	1.43581e-006
1.14--1.16	1.54738e-006
1.16--1.18	1.49757e-006
1.18--1.2	1.52423e-006
1.2--1.22	1.54454e-006
1.22--1.24	1.26553e-006
1.24--1.26	1.36714e-006
1.26--1.28	1.33364e-006
1.28--1.3	1.36869e-006
1.3--1.32	1.09691e-006
1.32--1.34	1.41261e-006
1.34--1.36	1.23785e-006
1.36--1.38	1.12104e-006
1.38--1.4	9.36399e-007
1.4--1.42	1.10876e-006
1.42--1.44	8.81403e-007
1.44--1.46	9.09221e-007
1.46--1.48	9.6641e-007
1.48--1.5	9.58293e-007
1.5--1.52	1.04901e-006
1.52--1.54	1.06519e-006
1.54--1.56	9.55297e-007
1.56--1.58	8.5534e-007
1.58--1.6	9.05567e-007
1.6--1.62	7.93367e-007
1.62--1.64	9.53166e-007
1.64--1.66	9.55602e-007
1.66--1.68	9.01104e-007
1.68--1.7	7.67114e-007
1.7--1.72	8.04953e-007
1.72--1.74	7.86208e-007
1.74--1.76	7.61122e-007
1.76--1.78	8.65811e-007
1.78--1.8	6.49952e-007
1.8--1.82	6.15729e-007
1.82--1.84	7.01823e-007
1.84--1.86	6.35051e-007
1.86--1.88	7.52132e-007
1.88--1.9	6.96761e-007
1.9--1.92	6.373e-007
1.92--1.94	6.25275e-007
1.94--1.96	6.48004e-007
1.96--1.98	5.77427e-007
1.98--2	5.93065e-007
2--2.02	5.72893e-007
2.02--2.04	6.44092e-007
2.04--2.06	5.11926e-007
2.06--2.08	5.81012e-007
2.08--2.1	5.17856e-007
2.1--2.12	4.94338e-007
2.12--2.14	5.30538e-007
2.14--2.16	5.56595e-007
2.16--2.18	4.89804e-007
2.18--2.2	4.44227e-007
2.2--2.22	5.31702e-007
2.22--2.24	4.20199e-007
2.24--2.26	4.21361e-007
2.26--2.28	3.8023e-007
2.28--2.3	3.99208e-007
2.3--2.32	3.58519e-007
2.32--2.34	3.72677e-007
2.34--2.36	3.42827e-007
2.36--2.38	3.52697e-007
2.38--2.4	3.4828e-007
2.4--2.42	3.40137e-007
2.42--2.44	3.1167e-007
2.44--2.46	2.48155e-007
2.46--2.48	3.13437e-007
2.48--2.5	3.23847e-007
2.5--2.52	2.85018e-007
2.52--2.54	2.61659e-007
2.54--2.56	2.65835e-007
2.56--2.58	2.56906e-007
2.58--2.6	2.53255e-007
2.6--2.62	2.19912e-007
2.62--2.64	2.73306e-007
2.64--2.66	2.13741e-007
2.66--2.68	1.95844e-007
2.68--2.7	2.08371e-007
2.7--2.72	2.09266e-007
2.72--2.74	2.28913e-007
2.74--2.76	1.85797e-007
2.76--2.78	1.69023e-007
2.78--2.8	1.74814e-007
2.8--2.82	2.11518e-007
2.82--2.84	1.58778e-007
2.84--2.86	1.62412e-007
2.86--2.88	1.54926e-007
2.88--2.9	1.57783e-007
2.9--2.92	1.36272e-007
2.92--2.94	1.409e-007
2.94--2.96	1.28112e-007
2.96--2.98	1.5252e-007
2.98--3	1.26461e-007
3--3.02	0
3.02--3.04	0
3.04--3.06	0
3.06--3.08	0
3.08--3.1	0
3.1--3.12	0
3.12--3.14	0
3.14--3.16	0
3.16--3.18	0
3.18--3.2	0
3.2--3.22	0
3.22--3.24	0
3.24--3.26	0
3.26--3.28	0
3.28--3.3	0
3.3--3.32	0
3.32--3.34	0
3.34--3.36	0
3.36--3.38	0
3.38--3.4	0
3.4--3.42	0
3.42--3.44	0
3.44--3.46	0
3.46--3.48	0
3.48--3.5	0
3.5--3.52	0
3.52--3.54	0
3.54--3.56	0
3.56--3.58	0
3.58--3.6	0
3.6--3.62	0
3.62--3.64	0
3.64--3.66	0
3.66--3.68	0
3.68--3.7	0
3.7--3.72	0
3.72--3.74	0
3.74--3.76	0
3.76--3.78	0
3.78--3.8	0
3.8--3.82	0
3.82--3.84	0
3.84--3.86	0
3.86--3.88	0
3.88--3.9	0
3.9--3.92	0
3.92--3.94	0
3.94--3.96	0
3.96--3.98	0
1.5<pT<2.0 GeV/c
had w/ #rho broadening
0--0.02	2.79357e-006
0.02--0.04	2.37018e-006
0.04--0.06	2.30548e-006
0.06--0.08	2.39801e-006
0.08--0.1	2.34486e-006
0.1--0.12	2.27514e-006
0.12--0.14	2.15503e-006
0.14--0.16	2.08383e-006
0.16--0.18	2.10632e-006
0.18--0.2	2.01457e-006
0.2--0.22	1.90318e-006
0.22--0.24	1.90445e-006
0.24--0.26	1.89585e-006
0.26--0.28	1.83381e-006
0.28--0.3	1.84536e-006
0.3--0.32	1.7306e-006
0.32--0.34	1.74512e-006
0.34--0.36	1.75061e-006
0.36--0.38	1.76996e-006
0.38--0.4	1.73152e-006
0.4--0.42	1.7988e-006
0.42--0.44	1.7235e-006
0.44--0.46	1.73362e-006
0.46--0.48	1.76454e-006
0.48--0.5	1.86247e-006
0.5--0.52	1.84353e-006
0.52--0.54	1.94064e-006
0.54--0.56	1.96071e-006
0.56--0.58	2.25921e-006
0.58--0.6	2.35423e-006
0.6--0.62	2.65112e-006
0.62--0.64	2.96433e-006
0.64--0.66	3.45265e-006
0.66--0.68	4.01692e-006
0.68--0.7	4.82043e-006
0.7--0.72	5.91148e-006
0.72--0.74	6.91633e-006
0.74--0.76	7.35474e-006
0.76--0.78	6.78543e-006
0.78--0.8	5.66129e-006
0.8--0.82	4.11963e-006
0.82--0.84	3.15025e-006
0.84--0.86	2.50831e-006
0.86--0.88	1.96211e-006
0.88--0.9	1.52328e-006
0.9--0.92	1.14419e-006
0.92--0.94	9.2947e-007
0.94--0.96	8.04614e-007
0.96--0.98	6.63921e-007
0.98--1	5.17947e-007
1--1.02	4.62728e-007
1.02--1.04	3.92529e-007
1.04--1.06	3.17018e-007
1.06--1.08	2.8437e-007
1.08--1.1	2.258e-007
1.1--1.12	1.87445e-007
1.12--1.14	1.93552e-007
1.14--1.16	1.39227e-007
1.16--1.18	1.3946e-007
1.18--1.2	1.0846e-007
1.2--1.22	1.23638e-007
1.22--1.24	9.63542e-008
1.24--1.26	8.13929e-008
1.26--1.28	6.84766e-008
1.28--1.3	5.59007e-008
1.3--1.32	5.85414e-008
1.32--1.34	5.35493e-008
1.34--1.36	4.74712e-008
1.36--1.38	4.39584e-008
1.38--1.4	3.55875e-008
1.4--1.42	3.66743e-008
1.42--1.44	3.15044e-008
1.44--1.46	2.92184e-008
1.46--1.48	2.92567e-008
1.48--1.5	2.6448e-008
1.5--1.52	2.40988e-008
1.52--1.54	1.88417e-008
1.54--1.56	1.86229e-008
1.56--1.58	1.71114e-008
1.58--1.6	1.40556e-008
1.6--1.62	1.1987e-008
1.62--1.64	1.29747e-008
1.64--1.66	1.09286e-008
1.66--1.68	1.07108e-008
1.68--1.7	9.24357e-009
1.7--1.72	7.34973e-009
1.72--1.74	7.03968e-009
1.74--1.76	6.69673e-009
1.76--1.78	5.76222e-009
1.78--1.8	4.9276e-009
1.8--1.82	4.87092e-009
1.82--1.84	3.65652e-009
1.84--1.86	3.31221e-009
1.86--1.88	2.7832e-009
1.88--1.9	2.8705e-009
1.9--1.92	2.61438e-009
1.92--1.94	2.22404e-009
1.94--1.96	1.79748e-009
1.96--1.98	1.80052e-009
1.98--2	1.66834e-009
2--2.02	0
2.02--2.04	0
2.04--2.06	0
2.06--2.08	0
2.08--2.1	0
2.1--2.12	0
2.12--2.14	0
2.14--2.16	0
2.16--2.18	0
2.18--2.2	0
2.2--2.22	0
2.22--2.24	0
2.24--2.26	0
2.26--2.28	0
2.28--2.3	0
2.3--2.32	0
2.32--2.34	0
2.34--2.36	0
2.36--2.38	0
2.38--2.4	0
2.4--2.42	0
2.42--2.44	0
2.44--2.46	0
2.46--2.48	0
2.48--2.5	0
2.5--2.52	0
2.52--2.54	0
2.54--2.56	0
2.56--2.58	0
2.58--2.6	0
2.6--2.62	0
2.62--2.64	0
2.64--2.66	0
2.66--2.68	0
2.68--2.7	0
2.7--2.72	0
2.72--2.74	0
2.74--2.76	0
2.76--2.78	0
2.78--2.8	0
2.8--2.82	0
2.82--2.84	0
2.84--2.86	0
2.86--2.88	0
2.88--2.9	0
2.9--2.92	0
2.92--2.94	0
2.94--2.96	0
2.96--2.98	0
2.98--3	0
3--3.02	0
3.02--3.04	0
3.04--3.06	0
3.06--3.08	0
3.08--3.1	0
3.1--3.12	0
3.12--3.14	0
3.14--3.16	0
3.16--3.18	0
3.18--3.2	0
3.2--3.22	0
3.22--3.24	0
3.24--3.26	0
3.26--3.28	0
3.28--3.3	0
3.3--3.32	0
3.32--3.34	0
3.34--3.36	0
3.36--3.38	0
3.38--3.4	0
3.4--3.42	0
3.42--3.44	0
3.44--3.46	0
3.46--3.48	0
3.48--3.5	0
3.5--3.52	0
3.52--3.54	0
3.54--3.56	0
3.56--3.58	0
3.58--3.6	0
3.6--3.62	0
3.62--3.64	0
3.64--3.66	0
3.66--3.68	0
3.68--3.7	0
3.7--3.72	0
3.72--3.74	0
3.74--3.76	0
3.76--3.78	0
3.78--3.8	0
3.8--3.82	0
3.82--3.84	0
3.84--3.86	0
3.86--3.88	0
3.88--3.9	0
3.9--3.92	0
3.92--3.94	0
3.94--3.96	0
3.96--3.98	0
partonic yield (PY)
0--0.02	1.00673e-009
0.02--0.04	7.69024e-009
0.04--0.06	2.07854e-008
0.06--0.08	4.2324e-008
0.08--0.1	6.84626e-008
0.1--0.12	9.90481e-008
0.12--0.14	1.30875e-007
0.14--0.16	1.68158e-007
0.16--0.18	2.17614e-007
0.18--0.2	2.59604e-007
0.2--0.22	2.98467e-007
0.22--0.24	3.56066e-007
0.24--0.26	4.17381e-007
0.26--0.28	4.67456e-007
0.28--0.3	5.40466e-007
0.3--0.32	5.68412e-007
0.32--0.34	6.34088e-007
0.34--0.36	6.93947e-007
0.36--0.38	7.61028e-007
0.38--0.4	7.96218e-007
0.4--0.42	8.71182e-007
0.42--0.44	8.74689e-007
0.44--0.46	9.11273e-007
0.46--0.48	9.56204e-007
0.48--0.5	1.02301e-006
0.5--0.52	1.01827e-006
0.52--0.54	1.05355e-006
0.54--0.56	1.03831e-006
0.56--0.58	1.14195e-006
0.58--0.6	1.11256e-006
0.6--0.62	1.14661e-006
0.62--0.64	1.1474e-006
0.64--0.66	1.1629e-006
0.66--0.68	1.14576e-006
0.68--0.7	1.14029e-006
0.7--0.72	1.15385e-006
0.72--0.74	1.16012e-006
0.74--0.76	1.15476e-006
0.76--0.78	1.14042e-006
0.78--0.8	1.15219e-006
0.8--0.82	1.09036e-006
0.82--0.84	1.10644e-006
0.84--0.86	1.1575e-006
0.86--0.88	1.16869e-006
0.88--0.9	1.14287e-006
0.9--0.92	1.06281e-006
0.92--0.94	1.04967e-006
0.94--0.96	1.09064e-006
0.96--0.98	1.06542e-006
0.98--1	9.80818e-007
1--1.02	1.02746e-006
1.02--1.04	1.01649e-006
1.04--1.06	9.54638e-007
1.06--1.08	9.93928e-007
1.08--1.1	9.10753e-007
1.1--1.12	8.65433e-007
1.12--1.14	1.02575e-006
1.14--1.16	8.34396e-007
1.16--1.18	9.43678e-007
1.18--1.2	8.14409e-007
1.2--1.22	1.05351e-006
1.22--1.24	8.98648e-007
1.24--1.26	8.37322e-007
1.26--1.28	7.66975e-007
1.28--1.3	6.75917e-007
1.3--1.32	7.60015e-007
1.32--1.34	7.44153e-007
1.34--1.36	7.03113e-007
1.36--1.38	6.94409e-007
1.38--1.4	5.99378e-007
1.4--1.42	6.57606e-007
1.42--1.44	6.03066e-007
1.44--1.46	5.97002e-007
1.46--1.48	6.52546e-007
1.48--1.5	6.33533e-007
1.5--1.52	6.22556e-007
1.52--1.54	5.27464e-007
1.54--1.56	5.67509e-007
1.56--1.58	5.63962e-007
1.58--1.6	4.9954e-007
1.6--1.62	4.69463e-007
1.62--1.64	5.5639e-007
1.64--1.66	5.10163e-007
1.66--1.68	5.42513e-007
1.68--1.7	5.19894e-007
1.7--1.72	4.54012e-007
1.72--1.74	4.75587e-007
1.74--1.76	4.96549e-007
1.76--1.78	4.65942e-007
1.78--1.8	4.39815e-007
1.8--1.82	4.74988e-007
1.82--1.84	3.9206e-007
1.84--1.86	3.8722e-007
1.86--1.88	3.56751e-007
1.88--1.9	4.03887e-007
1.9--1.92	4.06496e-007
1.92--1.94	3.79622e-007
1.94--1.96	3.35339e-007
1.96--1.98	3.7018e-007
1.98--2	3.75611e-007
2--2.02	4.12338e-007
2.02--2.04	3.86793e-007
2.04--2.06	3.65773e-007
2.06--2.08	3.68194e-007
2.08--2.1	3.72463e-007
2.1--2.12	3.30289e-007
2.12--2.14	3.32837e-007
2.14--2.16	2.91026e-007
2.16--2.18	3.26217e-007
2.18--2.2	3.10548e-007
2.2--2.22	2.95454e-007
2.22--2.24	3.01644e-007
2.24--2.26	2.84761e-007
2.26--2.28	2.79259e-007
2.28--2.3	2.79569e-007
2.3--2.32	2.63229e-007
2.32--2.34	2.5396e-007
2.34--2.36	2.42175e-007
2.36--2.38	2.50623e-007
2.38--2.4	2.85329e-007
2.4--2.42	2.5556e-007
2.42--2.44	2.43935e-007
2.44--2.46	2.29368e-007
2.46--2.48	2.17106e-007
2.48--2.5	2.46136e-007
2.5--2.52	2.62771e-007
2.52--2.54	2.06522e-007
2.54--2.56	2.09244e-007
2.56--2.58	2.18548e-007
2.58--2.6	1.97387e-007
2.6--2.62	2.0613e-007
2.62--2.64	1.78051e-007
2.64--2.66	1.82006e-007
2.66--2.68	1.73947e-007
2.68--2.7	1.55777e-007
2.7--2.72	1.55554e-007
2.72--2.74	1.98114e-007
2.74--2.76	1.70887e-007
2.76--2.78	1.54838e-007
2.78--2.8	1.58996e-007
2.8--2.82	1.56359e-007
2.82--2.84	1.7726e-007
2.84--2.86	1.45454e-007
2.86--2.88	1.51319e-007
2.88--2.9	1.50244e-007
2.9--2.92	1.27081e-007
2.92--2.94	1.32531e-007
2.94--2.96	1.17445e-007
2.96--2.98	1.28306e-007
2.98--3	1.24387e-007
3--3.02	0
3.02--3.04	0
3.04--3.06	0
3.06--3.08	0
3.08--3.1	0
3.1--3.12	0
3.12--3.14	0
3.14--3.16	0
3.16--3.18	0
3.18--3.2	0
3.2--3.22	0
3.22--3.24	0
3.24--3.26	0
3.26--3.28	0
3.28--3.3	0
3.3--3.32	0
3.32--3.34	0
3.34--3.36	0
3.36--3.38	0
3.38--3.4	0
3.4--3.42	0
3.42--3.44	0
3.44--3.46	0
3.46--3.48	0
3.48--3.5	0
3.5--3.52	0
3.52--3.54	0
3.54--3.56	0
3.56--3.58	0
3.58--3.6	0
3.6--3.62	0
3.62--3.64	0
3.64--3.66	0
3.66--3.68	0
3.68--3.7	0
3.7--3.72	0
3.72--3.74	0
3.74--3.76	0
3.76--3.78	0
3.78--3.8	0
3.8--3.82	0
3.82--3.84	0
3.84--3.86	0
3.86--3.88	0
3.88--3.9	0
3.9--3.92	0
3.92--3.94	0
3.94--3.96	0
3.96--3.98	0
