Figure 40b: invariant mass spectrum of e+e- pairs in MB Au+Au compared to predictions from Kevin Dusling

data: as in Fig.25

cocktail + c#bar{c} PYTHIA + PY
0--0.02	0.0859453
0.02--0.04	0.0174864
0.04--0.06	0.00851899
0.06--0.08	0.00469187
0.08--0.1	0.00253332
0.1--0.12	0.00112176
0.12--0.14	0.000544399
0.14--0.16	0.000443955
0.16--0.18	0.000402342
0.18--0.2	0.000369866
0.2--0.22	0.000338786
0.22--0.24	0.000318032
0.24--0.26	0.000305799
0.26--0.28	0.000298552
0.28--0.3	0.000289937
0.3--0.32	0.000273087
0.32--0.34	0.000267169
0.34--0.36	0.000265181
0.36--0.38	0.000250781
0.38--0.4	0.000242821
0.4--0.42	0.00023863
0.42--0.44	0.000230611
0.44--0.46	0.000217977
0.46--0.48	0.000207923
0.48--0.5	0.000199128
0.5--0.52	0.000187212
0.52--0.54	0.000179798
0.54--0.56	0.00018086
0.56--0.58	0.000176798
0.58--0.6	0.000174549
0.6--0.62	0.000172139
0.62--0.64	0.000164209
0.64--0.66	0.000155981
0.66--0.68	0.000160394
0.68--0.7	0.000169769
0.7--0.72	0.000182707
0.72--0.74	0.000195571
0.74--0.76	0.000214611
0.76--0.78	0.000420415
0.78--0.8	0.000512775
0.8--0.82	0.000151386
0.82--0.84	9.91181e-005
0.84--0.86	8.22535e-005
0.86--0.88	6.83501e-005
0.88--0.9	6.14124e-005
0.9--0.92	5.53549e-005
0.92--0.94	5.09075e-005
0.94--0.96	4.89546e-005
0.96--0.98	4.81692e-005
0.98--1	6.60901e-005
1--1.02	0.000337318
1.02--1.04	0.000315216
1.04--1.06	5.54636e-005
1.06--1.08	3.65479e-005
1.08--1.1	3.15862e-005
1.1--1.12	2.9237e-005
1.12--1.14	2.73483e-005
1.14--1.16	2.63603e-005
1.16--1.18	2.50258e-005
1.18--1.2	2.30747e-005
1.2--1.22	2.26229e-005
1.22--1.24	2.15951e-005
1.24--1.26	2.07485e-005
1.26--1.28	1.95753e-005
1.28--1.3	1.85632e-005
1.3--1.32	1.80289e-005
1.32--1.34	1.75365e-005
1.34--1.36	1.6418e-005
1.36--1.38	1.5928e-005
1.38--1.4	1.48345e-005
1.4--1.42	1.43253e-005
1.42--1.44	1.35601e-005
1.44--1.46	1.324e-005
1.46--1.48	1.23878e-005
1.48--1.5	1.20332e-005
1.5--1.52	1.16067e-005
1.52--1.54	1.11653e-005
1.54--1.56	1.06628e-005
1.56--1.58	1.00314e-005
1.58--1.6	9.57855e-006
1.6--1.62	9.41697e-006
1.62--1.64	8.97731e-006
1.64--1.66	8.49695e-006
1.66--1.68	8.2787e-006
1.68--1.7	7.98183e-006
1.7--1.72	7.56276e-006
1.72--1.74	7.2379e-006
1.74--1.76	6.91868e-006
1.76--1.78	6.6572e-006
1.78--1.8	6.3585e-006
1.8--1.82	6.056e-006
1.82--1.84	5.79726e-006
1.84--1.86	5.56356e-006
1.86--1.88	5.39666e-006
1.88--1.9	5.20383e-006
1.9--1.92	5.001e-006
1.92--1.94	4.82765e-006
1.94--1.96	4.54456e-006
1.96--1.98	4.396e-006
1.98--2	4.17663e-006
2--2.02	4.04619e-006
2.02--2.04	3.89227e-006
2.04--2.06	3.7123e-006
2.06--2.08	3.62787e-006
2.08--2.1	3.41146e-006
2.1--2.12	3.31248e-006
2.12--2.14	3.21087e-006
2.14--2.16	3.07691e-006
2.16--2.18	3.01656e-006
2.18--2.2	2.8116e-006
2.2--2.22	2.7666e-006
2.22--2.24	2.66062e-006
2.24--2.26	2.50821e-006
2.26--2.28	2.43573e-006
2.28--2.3	2.38604e-006
2.3--2.32	2.30208e-006
2.32--2.34	2.22055e-006
2.34--2.36	2.12409e-006
2.36--2.38	2.07663e-006
2.38--2.4	2.02353e-006
2.4--2.42	1.95922e-006
2.42--2.44	1.89922e-006
2.44--2.46	1.83362e-006
2.46--2.48	1.81117e-006
2.48--2.5	1.77118e-006
2.5--2.52	1.7381e-006
2.52--2.54	1.68309e-006
2.54--2.56	1.66625e-006
2.56--2.58	1.63622e-006
2.58--2.6	1.61906e-006
2.6--2.62	1.60482e-006
2.62--2.64	1.59131e-006
2.64--2.66	1.56972e-006
2.66--2.68	1.55731e-006
2.68--2.7	1.54407e-006
2.7--2.72	1.55301e-006
2.72--2.74	1.59258e-006
2.74--2.76	1.60033e-006
2.76--2.78	1.639e-006
2.78--2.8	1.68801e-006
2.8--2.82	1.76314e-006
2.82--2.84	1.84028e-006
2.84--2.86	1.93407e-006
2.86--2.88	2.08071e-006
2.88--2.9	2.23582e-006
2.9--2.92	2.46042e-006
2.92--2.94	2.74266e-006
2.94--2.96	3.19313e-006
2.96--2.98	3.78007e-006
2.98--3	4.92471e-006
3--3.02	6.34631e-006
3.02--3.04	9.70718e-006
3.04--3.06	1.36796e-005
3.06--3.08	1.95073e-005
3.08--3.1	2.48768e-005
3.1--3.12	2.56401e-005
3.12--3.14	2.48057e-005
3.14--3.16	1.89898e-005
3.16--3.18	1.26426e-005
3.18--3.2	8.08715e-006
3.2--3.22	4.19515e-006
3.22--3.24	2.49093e-006
3.24--3.26	1.27741e-006
3.26--3.28	8.18279e-007
3.28--3.3	5.15284e-007
3.3--3.32	3.92389e-007
3.32--3.34	3.06824e-007
3.34--3.36	2.63076e-007
3.36--3.38	2.28677e-007
3.38--3.4	2.05978e-007
3.4--3.42	1.86823e-007
3.42--3.44	1.74626e-007
3.44--3.46	1.64668e-007
3.46--3.48	1.57026e-007
3.48--3.5	1.51239e-007
3.5--3.52	1.48358e-007
3.52--3.54	1.48568e-007
3.54--3.56	1.51219e-007
3.56--3.58	1.61852e-007
3.58--3.6	1.77754e-007
3.6--3.62	2.18589e-007
3.62--3.64	2.68387e-007
3.64--3.66	3.43843e-007
3.66--3.68	4.13674e-007
3.68--3.7	4.20812e-007
3.7--3.72	4.0636e-007
3.72--3.74	3.23997e-007
3.74--3.76	2.34502e-007
3.76--3.78	1.69604e-007
3.78--3.8	1.13886e-007
3.8--3.82	8.81656e-008
3.82--3.84	6.92526e-008
3.84--3.86	6.07456e-008
3.86--3.88	5.2581e-008
3.88--3.9	4.78487e-008
3.9--3.92	4.57954e-008
3.92--3.94	4.38303e-008
3.94--3.96	4.19494e-008
3.96--3.98	4.01493e-008
3.98--4	3.84264e-008
4--4.02	3.67775e-008
4.02--4.04	3.51993e-008
4.04--4.06	3.36889e-008
4.06--4.08	3.22432e-008
4.08--4.1	3.08596e-008
4.1--4.12	2.95354e-008
4.12--4.14	2.82679e-008
4.14--4.16	2.70549e-008
4.16--4.18	2.58939e-008
4.18--4.2	2.47828e-008
4.2--4.22	2.37193e-008
4.22--4.24	2.27015e-008
4.24--4.26	2.17273e-008
4.26--4.28	2.0795e-008
4.28--4.3	1.99026e-008
4.3--4.32	1.90486e-008
4.32--4.34	1.82312e-008
4.34--4.36	1.74488e-008
4.36--4.38	1.67001e-008
4.38--4.4	1.59834e-008
4.4--4.42	1.52976e-008
4.42--4.44	1.46411e-008
4.44--4.46	1.40128e-008
4.46--4.48	1.34115e-008
4.48--4.5	1.2836e-008
4.5--4.52	1.22852e-008
4.52--4.54	1.1758e-008
4.54--4.56	1.12535e-008
4.56--4.58	1.07706e-008
4.58--4.6	1.03084e-008
4.6--4.62	9.86602e-009
4.62--4.64	9.44265e-009
4.64--4.66	9.03745e-009
4.66--4.68	8.64964e-009
4.68--4.7	8.27847e-009
4.7--4.72	7.92323e-009
4.72--4.74	7.58323e-009
4.74--4.76	7.25782e-009
4.76--4.78	6.94637e-009
4.78--4.8	6.64829e-009
4.8--4.82	6.363e-009
4.82--4.84	6.08995e-009
4.84--4.86	5.82862e-009
4.86--4.88	5.57851e-009
4.88--4.9	5.33912e-009
4.9--4.92	5.11001e-009
4.92--4.94	4.89073e-009
4.94--4.96	4.68086e-009
4.96--4.98	4.48e-009
cocktail + c#bar{c} rnd + PY
0--0.02	0.0859453
0.02--0.04	0.0174864
0.04--0.06	0.00851899
0.06--0.08	0.00469187
0.08--0.1	0.00253332
0.1--0.12	0.00112176
0.12--0.14	0.000544399
0.14--0.16	0.000443955
0.16--0.18	0.000402342
0.18--0.2	0.000369866
0.2--0.22	0.000338786
0.22--0.24	0.000318032
0.24--0.26	0.000305799
0.26--0.28	0.000298552
0.28--0.3	0.000289937
0.3--0.32	0.000273087
0.32--0.34	0.000267169
0.34--0.36	0.000265181
0.36--0.38	0.000250781
0.38--0.4	0.000242821
0.4--0.42	0.00023863
0.42--0.44	0.000230611
0.44--0.46	0.000215101
0.46--0.48	0.000197452
0.48--0.5	0.000182965
0.5--0.52	0.000166185
0.52--0.54	0.00015535
0.54--0.56	0.0001565
0.56--0.58	0.000153035
0.58--0.6	0.000151381
0.6--0.62	0.000149563
0.62--0.64	0.000142219
0.64--0.66	0.000134573
0.66--0.68	0.000139562
0.68--0.7	0.000149506
0.7--0.72	0.000163005
0.72--0.74	0.000176423
0.74--0.76	0.000196007
0.76--0.78	0.000402348
0.78--0.8	0.000495234
0.8--0.82	0.000134363
0.82--0.84	8.2602e-005
0.84--0.86	6.62344e-005
0.86--0.88	5.28179e-005
0.88--0.9	4.63565e-005
0.9--0.92	4.0765e-005
0.92--0.94	3.67728e-005
0.94--0.96	3.52647e-005
0.96--0.98	3.49133e-005
0.98--1	5.32577e-005
1--1.02	0.000324898
1.02--1.04	0.000303199
1.04--1.06	4.38382e-005
1.06--1.08	2.53039e-005
1.08--1.1	2.07135e-005
1.1--1.12	1.87255e-005
1.12--1.14	1.7188e-005
1.14--1.16	1.65413e-005
1.16--1.18	1.55384e-005
1.18--1.2	1.39093e-005
1.2--1.22	1.37703e-005
1.22--1.24	1.30459e-005
1.24--1.26	1.24937e-005
1.26--1.28	1.16062e-005
1.28--1.3	1.08709e-005
1.3--1.32	1.06051e-005
1.32--1.34	1.03729e-005
1.34--1.36	9.50634e-006
1.36--1.38	9.26045e-006
1.38--1.4	8.40329e-006
1.4--1.42	8.12288e-006
1.42--1.44	7.57917e-006
1.44--1.46	7.47335e-006
1.46--1.48	6.82844e-006
1.48--1.5	6.6744e-006
1.5--1.52	6.44179e-006
1.52--1.54	6.18785e-006
1.54--1.56	5.8665e-006
1.56--1.58	5.41023e-006
1.58--1.6	5.12655e-006
1.6--1.62	5.12843e-006
1.62--1.64	4.84666e-006
1.64--1.66	4.51876e-006
1.66--1.68	4.44774e-006
1.68--1.7	4.29299e-006
1.7--1.72	4.01112e-006
1.72--1.74	3.81867e-006
1.74--1.76	3.62723e-006
1.76--1.78	3.48902e-006
1.78--1.8	3.30924e-006
1.8--1.82	3.12146e-006
1.82--1.84	2.97335e-006
1.84--1.86	2.84634e-006
1.86--1.88	2.78229e-006
1.88--1.9	2.68863e-006
1.9--1.92	2.58138e-006
1.92--1.94	2.50017e-006
1.94--1.96	2.30587e-006
1.96--1.98	2.24286e-006
1.98--2	2.10593e-006
2--2.02	2.05491e-006
2.02--2.04	1.97749e-006
2.04--2.06	1.8712e-006
2.06--2.08	1.85775e-006
2.08--2.1	1.70968e-006
2.1--2.12	1.6765e-006
2.12--2.14	1.63826e-006
2.14--2.16	1.56529e-006
2.16--2.18	1.56366e-006
2.18--2.2	1.41522e-006
2.2--2.22	1.42462e-006
2.22--2.24	1.371e-006
2.24--2.26	1.26896e-006
2.26--2.28	1.24495e-006
2.28--2.3	1.24191e-006
2.3--2.32	1.20282e-006
2.32--2.34	1.16446e-006
2.34--2.36	1.10952e-006
2.36--2.38	1.102e-006
2.38--2.4	1.08732e-006
2.4--2.42	1.05995e-006
2.42--2.44	1.03549e-006
2.44--2.46	1.00405e-006
2.46--2.48	1.01444e-006
2.48--2.5	1.00604e-006
2.5--2.52	1.00332e-006
2.52--2.54	9.77497e-007
2.54--2.56	9.88715e-007
2.56--2.58	9.85654e-007
2.58--2.6	9.94424e-007
2.6--2.62	1.00509e-006
2.62--2.64	1.01553e-006
2.64--2.66	1.01695e-006
2.66--2.68	1.02665e-006
2.68--2.7	1.03466e-006
2.7--2.72	1.06401e-006
2.72--2.74	1.1232e-006
2.74--2.76	1.14979e-006
2.76--2.78	1.20657e-006
2.78--2.8	1.27296e-006
2.8--2.82	1.3648e-006
2.82--2.84	1.45798e-006
2.84--2.86	1.56719e-006
2.86--2.88	1.72862e-006
2.88--2.9	1.89795e-006
2.9--2.92	2.13621e-006
2.92--2.94	2.43156e-006
2.94--2.96	2.89462e-006
2.96--2.98	3.49365e-006
2.98--3	4.6499e-006
3--3.02	6.08264e-006
3.02--3.04	9.45421e-006
3.04--3.06	1.34369e-005
3.06--3.08	1.92744e-005
3.08--3.1	2.46535e-005
3.1--3.12	2.54258e-005
3.12--3.14	2.46001e-005
3.14--3.16	1.87926e-005
3.16--3.18	1.24535e-005
3.18--3.2	7.90574e-006
3.2--3.22	4.02115e-006
3.22--3.24	2.32404e-006
3.24--3.26	1.11733e-006
3.26--3.28	6.64753e-007
3.28--3.3	3.68041e-007
3.3--3.32	2.51175e-007
3.32--3.34	1.71396e-007
3.34--3.36	1.33199e-007
3.36--3.38	1.04127e-007
3.38--3.4	8.65394e-008
3.4--3.42	7.22882e-008
3.42--3.44	6.4797e-008
3.44--3.46	5.93527e-008
3.46--3.48	5.60416e-008
3.48--3.5	5.44101e-008
3.5--3.52	5.55147e-008
3.52--3.54	5.95477e-008
3.54--3.56	6.58675e-008
3.56--3.58	8.00187e-008
3.58--3.6	9.92962e-008
3.6--3.62	1.43368e-007
3.62--3.64	1.96271e-007
3.64--3.66	2.74705e-007
3.66--3.68	3.47393e-007
3.68--3.7	3.57271e-007
3.7--3.72	3.45446e-007
3.72--3.74	2.65604e-007
3.74--3.76	1.78526e-007
3.76--3.78	1.15946e-007
3.78--3.8	6.24498e-008
3.8--3.82	3.88611e-008
3.82--3.84	2.1992e-008
3.84--3.86	1.5445e-008
3.86--3.88	9.15992e-009
3.88--3.9	6.22983e-009
3.9--3.92	5.90459e-009
3.92--3.94	5.59632e-009
3.94--3.96	5.30416e-009
3.96--3.98	5.02724e-009
3.98--4	4.76478e-009
4--4.02	4.51603e-009
4.02--4.04	4.28026e-009
4.04--4.06	4.0568e-009
4.06--4.08	3.845e-009
4.08--4.1	3.64427e-009
4.1--4.12	3.45401e-009
4.12--4.14	3.27369e-009
4.14--4.16	3.10278e-009
4.16--4.18	2.94079e-009
4.18--4.2	2.78726e-009
4.2--4.22	2.64174e-009
4.22--4.24	2.50383e-009
4.24--4.26	2.37311e-009
4.26--4.28	2.24922e-009
4.28--4.3	2.13179e-009
4.3--4.32	2.0205e-009
4.32--4.34	1.91501e-009
4.34--4.36	1.81503e-009
4.36--4.38	1.72028e-009
4.38--4.4	1.63047e-009
4.4--4.42	1.54534e-009
4.42--4.44	1.46467e-009
4.44--4.46	1.3882e-009
4.46--4.48	1.31573e-009
4.48--4.5	1.24704e-009
4.5--4.52	1.18193e-009
4.52--4.54	1.12023e-009
4.54--4.56	1.06174e-009
4.56--4.58	1.00631e-009
4.58--4.6	9.53775e-010
4.6--4.62	9.03981e-010
4.62--4.64	8.56787e-010
4.64--4.66	8.12057e-010
4.66--4.68	7.69662e-010
4.68--4.7	7.2948e-010
4.7--4.72	6.91396e-010
4.72--4.74	6.553e-010
4.74--4.76	6.21089e-010
4.76--4.78	5.88663e-010
4.78--4.8	5.57931e-010
4.8--4.82	5.28803e-010
4.82--4.84	5.01196e-010
4.84--4.86	4.7503e-010
4.86--4.88	4.5023e-010
4.88--4.9	4.26725e-010
4.9--4.92	4.04446e-010
4.92--4.94	3.83331e-010
4.94--4.96	3.63319e-010
4.96--4.98	3.44351e-010
