Figure 41b: invariant mass spectrum of e+e- pairs in MB Au+Au compared to predictions from Kevin Dusling

data: as in Fig.25

hadronic yield
0--0.02	0.00179285
0.02--0.04	0.00046906
0.04--0.06	0.000268587
0.06--0.08	0.000186706
0.08--0.1	0.000144571
0.1--0.12	0.000105385
0.12--0.14	8.75784e-005
0.14--0.16	7.05983e-005
0.16--0.18	6.45034e-005
0.18--0.2	6.02375e-005
0.2--0.22	5.08916e-005
0.22--0.24	4.87558e-005
0.24--0.26	4.59724e-005
0.26--0.28	4.3939e-005
0.28--0.3	4.17761e-005
0.3--0.32	3.93225e-005
0.32--0.34	3.98852e-005
0.34--0.36	4.33748e-005
0.36--0.38	4.18385e-005
0.38--0.4	4.11293e-005
0.4--0.42	4.36936e-005
0.42--0.44	4.44146e-005
0.44--0.46	4.66967e-005
0.46--0.48	4.65793e-005
0.48--0.5	4.89443e-005
0.5--0.52	4.52746e-005
0.52--0.54	4.27296e-005
0.54--0.56	4.73293e-005
0.56--0.58	4.76698e-005
0.58--0.6	5.00308e-005
0.6--0.62	5.30261e-005
0.62--0.64	5.68789e-005
0.64--0.66	6.41884e-005
0.66--0.68	7.20126e-005
0.68--0.7	8.19955e-005
0.7--0.72	9.36317e-005
0.72--0.74	0.000102793
0.74--0.76	0.00010479
0.76--0.78	9.17229e-005
0.78--0.8	7.437e-005
0.8--0.82	5.21559e-005
0.82--0.84	3.75297e-005
0.84--0.86	2.86227e-005
0.86--0.88	2.00225e-005
0.88--0.9	1.56857e-005
0.9--0.92	1.19375e-005
0.92--0.94	9.24372e-006
0.94--0.96	7.78524e-006
0.96--0.98	6.22112e-006
0.98--1	4.97942e-006
1--1.02	4.19514e-006
1.02--1.04	3.44309e-006
1.04--1.06	2.7323e-006
1.06--1.08	2.39379e-006
1.08--1.1	1.76135e-006
1.1--1.12	1.45827e-006
1.12--1.14	1.20017e-006
1.14--1.16	1.09002e-006
1.16--1.18	9.22172e-007
1.18--1.2	6.81104e-007
1.2--1.22	6.69104e-007
1.22--1.24	5.8868e-007
1.24--1.26	5.27739e-007
1.26--1.28	4.45073e-007
1.28--1.3	3.81635e-007
1.3--1.32	3.65106e-007
1.32--1.34	3.55287e-007
1.34--1.36	2.94154e-007
1.36--1.38	2.79987e-007
1.38--1.4	2.24481e-007
1.4--1.42	2.09194e-007
1.42--1.44	1.78669e-007
1.44--1.46	1.75254e-007
1.46--1.48	1.3946e-007
1.48--1.5	1.33853e-007
1.5--1.52	1.2196e-007
1.52--1.54	1.10824e-007
1.54--1.56	9.6586e-008
1.56--1.58	7.86026e-008
1.58--1.6	6.83047e-008
1.6--1.62	6.82712e-008
1.62--1.64	5.76212e-008
1.64--1.66	4.77063e-008
1.66--1.68	4.55991e-008
1.68--1.7	4.04838e-008
1.7--1.72	3.42002e-008
1.72--1.74	2.96376e-008
1.74--1.76	2.55074e-008
1.76--1.78	2.25048e-008
1.78--1.8	1.94365e-008
1.8--1.82	1.63948e-008
1.82--1.84	1.42807e-008
1.84--1.86	1.25534e-008
1.86--1.88	1.1432e-008
1.88--1.9	1.01492e-008
1.9--1.92	8.96806e-009
1.92--1.94	8.11609e-009
1.94--1.96	6.44981e-009
1.96--1.98	5.84155e-009
1.98--2	4.88841e-009
2--2.02	0
2.02--2.04	0
2.04--2.06	0
2.06--2.08	0
2.08--2.1	0
2.1--2.12	0
2.12--2.14	0
2.14--2.16	0
2.16--2.18	0
2.18--2.2	0
2.2--2.22	0
2.22--2.24	0
2.24--2.26	0
2.26--2.28	0
2.28--2.3	0
2.3--2.32	0
2.32--2.34	0
2.34--2.36	0
2.36--2.38	0
2.38--2.4	0
2.4--2.42	0
2.42--2.44	0
2.44--2.46	0
2.46--2.48	0
2.48--2.5	0
2.5--2.52	0
2.52--2.54	0
2.54--2.56	0
2.56--2.58	0
2.58--2.6	0
2.6--2.62	0
2.62--2.64	0
2.64--2.66	0
2.66--2.68	0
2.68--2.7	0
2.7--2.72	0
2.72--2.74	0
2.74--2.76	0
2.76--2.78	0
2.78--2.8	0
2.8--2.82	0
2.82--2.84	0
2.84--2.86	0
2.86--2.88	0
2.88--2.9	0
2.9--2.92	0
2.92--2.94	0
2.94--2.96	0
2.96--2.98	0
partonic yield
0--0.02	3.3438e-007
0.02--0.04	8.2214e-007
0.04--0.06	1.37757e-006
0.06--0.08	1.97135e-006
0.08--0.1	2.56195e-006
0.1--0.12	2.98637e-006
0.12--0.14	3.50252e-006
0.14--0.16	3.88485e-006
0.16--0.18	4.60603e-006
0.18--0.2	5.37198e-006
0.2--0.22	5.62204e-006
0.22--0.24	6.4888e-006
0.24--0.26	7.32997e-006
0.26--0.28	8.04559e-006
0.28--0.3	8.8422e-006
0.3--0.32	9.34542e-006
0.32--0.34	1.04523e-005
0.34--0.36	1.23537e-005
0.36--0.38	1.27882e-005
0.38--0.4	1.33636e-005
0.4--0.42	1.49827e-005
0.42--0.44	1.58432e-005
0.44--0.46	1.71161e-005
0.46--0.48	1.74806e-005
0.48--0.5	1.84341e-005
0.5--0.52	1.79087e-005
0.52--0.54	1.65285e-005
0.54--0.56	1.74617e-005
0.56--0.58	1.67526e-005
0.58--0.6	1.63605e-005
0.6--0.62	1.5916e-005
0.62--0.64	1.53135e-005
0.64--0.66	1.51142e-005
0.66--0.68	1.45231e-005
0.68--0.7	1.38558e-005
0.7--0.72	1.32951e-005
0.72--0.74	1.26792e-005
0.74--0.76	1.22821e-005
0.76--0.78	1.16392e-005
0.78--0.8	1.1534e-005
0.8--0.82	1.05934e-005
0.82--0.84	1.02011e-005
0.84--0.86	1.02095e-005
0.86--0.88	9.25252e-006
0.88--0.9	9.12384e-006
0.9--0.92	8.58924e-006
0.92--0.94	8.09776e-006
0.94--0.96	8.11599e-006
0.96--0.98	7.70357e-006
0.98--1	7.25635e-006
1--1.02	7.18662e-006
1.02--1.04	6.90462e-006
1.04--1.06	6.38027e-006
1.06--1.08	6.49294e-006
1.08--1.1	5.59414e-006
1.1--1.12	5.30574e-006
1.12--1.14	5.01389e-006
1.14--1.16	5.16948e-006
1.16--1.18	4.97258e-006
1.18--1.2	4.15151e-006
1.2--1.22	4.55305e-006
1.22--1.24	4.39175e-006
1.24--1.26	4.29458e-006
1.26--1.28	3.9453e-006
1.28--1.3	3.65865e-006
1.3--1.32	3.74804e-006
1.32--1.34	3.89238e-006
1.34--1.36	3.42499e-006
1.36--1.38	3.47187e-006
1.38--1.4	2.96222e-006
1.4--1.42	2.96912e-006
1.42--1.44	2.70725e-006
1.44--1.46	2.83881e-006
1.46--1.48	2.4683e-006
1.48--1.5	2.53729e-006
1.5--1.52	2.50634e-006
1.52--1.54	2.45676e-006
1.54--1.56	2.33953e-006
1.56--1.58	2.07986e-006
1.58--1.6	1.97851e-006
1.6--1.62	2.13012e-006
1.62--1.64	1.98912e-006
1.64--1.66	1.81466e-006
1.66--1.68	1.89147e-006
1.68--1.7	1.83936e-006
1.7--1.72	1.70188e-006
1.72--1.74	1.62371e-006
1.74--1.76	1.54356e-006
1.76--1.78	1.4977e-006
1.78--1.8	1.41552e-006
1.8--1.82	1.31657e-006
1.82--1.84	1.25969e-006
1.84--1.86	1.2166e-006
1.86--1.88	1.2168e-006
1.88--1.9	1.19309e-006
1.9--1.92	1.15292e-006
1.92--1.94	1.14758e-006
1.94--1.96	1.00618e-006
1.96--1.98	9.99463e-007
1.98--2	9.22623e-007
2--2.02	9.33382e-007
2.02--2.04	9.01312e-007
2.04--2.06	8.3752e-007
2.06--2.08	8.62837e-007
2.08--2.1	7.51183e-007
2.1--2.12	7.53507e-007
2.12--2.14	7.48624e-007
2.14--2.16	7.0551e-007
2.16--2.18	7.31396e-007
2.18--2.2	6.07703e-007
2.2--2.22	6.39924e-007
2.22--2.24	6.07278e-007
2.24--2.26	5.24537e-007
2.26--2.28	5.17592e-007
2.28--2.3	5.30033e-007
2.3--2.32	5.04784e-007
2.32--2.34	4.78818e-007
2.34--2.36	4.34235e-007
2.36--2.38	4.35505e-007
2.38--2.4	4.26628e-007
2.4--2.42	4.03735e-007
2.42--2.44	3.8277e-007
2.44--2.46	3.53325e-007
2.46--2.48	3.61217e-007
2.48--2.5	3.48703e-007
2.5--2.52	3.39925e-007
2.52--2.54	3.06514e-007
2.54--2.56	3.05869e-007
2.56--2.58	2.8909e-007
2.58--2.6	2.79923e-007
2.6--2.62	2.71861e-007
2.62--2.64	2.65381e-007
2.64--2.66	2.48888e-007
2.66--2.68	2.35093e-007
2.68--2.7	2.16374e-007
2.7--2.72	2.07021e-007
2.72--2.74	2.23373e-007
2.74--2.76	1.96151e-007
2.76--2.78	1.9384e-007
2.78--2.8	1.82054e-007
2.8--2.82	1.88701e-007
2.82--2.84	1.75146e-007
2.84--2.86	1.66541e-007
2.86--2.88	1.66581e-007
2.88--2.9	1.55196e-007
2.9--2.92	1.41534e-007
2.92--2.94	1.43172e-007
2.94--2.96	1.33997e-007
2.96--2.98	1.36263e-007
0--0.02	0.0859453
0.02--0.04	0.0174864
0.04--0.06	0.00851899
0.06--0.08	0.00469187
0.08--0.1	0.00253332
0.1--0.12	0.00112176
0.12--0.14	0.000544399
0.14--0.16	0.000443955
0.16--0.18	0.000402342
0.18--0.2	0.000369866
0.2--0.22	0.000338786
0.22--0.24	0.000318032
0.24--0.26	0.000305799
0.26--0.28	0.000298552
0.28--0.3	0.000289937
0.3--0.32	0.000273087
0.32--0.34	0.000267169
0.34--0.36	0.000265181
0.36--0.38	0.000250781
0.38--0.4	0.000242821
0.4--0.42	0.00023863
0.42--0.44	0.000230611
0.44--0.46	0.000217977
0.46--0.48	0.000207923
0.48--0.5	0.000199128
0.5--0.52	0.000187212
0.52--0.54	0.000179798
0.54--0.56	0.00018086
0.56--0.58	0.000176798
0.58--0.6	0.000174549
0.6--0.62	0.000172139
0.62--0.64	0.000164209
0.64--0.66	0.000155981
0.66--0.68	0.000160394
0.68--0.7	0.000169769
0.7--0.72	0.000182707
0.72--0.74	0.000195571
0.74--0.76	0.000214611
0.76--0.78	0.000420415
0.78--0.8	0.000512775
0.8--0.82	0.000151386
0.82--0.84	9.91181e-005
0.84--0.86	8.22535e-005
0.86--0.88	6.83501e-005
0.88--0.9	6.14124e-005
0.9--0.92	5.53549e-005
0.92--0.94	5.09075e-005
0.94--0.96	4.89546e-005
0.96--0.98	4.81692e-005
0.98--1	6.60901e-005
1--1.02	0.000337318
1.02--1.04	0.000315216
1.04--1.06	5.54636e-005
1.06--1.08	3.65479e-005
1.08--1.1	3.15862e-005
1.1--1.12	2.9237e-005
1.12--1.14	2.73483e-005
1.14--1.16	2.63603e-005
1.16--1.18	2.50258e-005
1.18--1.2	2.30747e-005
1.2--1.22	2.26229e-005
1.22--1.24	2.15951e-005
1.24--1.26	2.07485e-005
1.26--1.28	1.95753e-005
1.28--1.3	1.85632e-005
1.3--1.32	1.80289e-005
1.32--1.34	1.75365e-005
1.34--1.36	1.6418e-005
1.36--1.38	1.5928e-005
1.38--1.4	1.48345e-005
1.4--1.42	1.43253e-005
1.42--1.44	1.35601e-005
1.44--1.46	1.324e-005
1.46--1.48	1.23878e-005
1.48--1.5	1.20332e-005
1.5--1.52	1.16067e-005
1.52--1.54	1.11653e-005
1.54--1.56	1.06628e-005
1.56--1.58	1.00314e-005
1.58--1.6	9.57855e-006
1.6--1.62	9.41697e-006
1.62--1.64	8.97731e-006
1.64--1.66	8.49695e-006
1.66--1.68	8.2787e-006
1.68--1.7	7.98183e-006
1.7--1.72	7.56276e-006
1.72--1.74	7.2379e-006
1.74--1.76	6.91868e-006
1.76--1.78	6.6572e-006
1.78--1.8	6.3585e-006
1.8--1.82	6.056e-006
1.82--1.84	5.79726e-006
1.84--1.86	5.56356e-006
1.86--1.88	5.39666e-006
1.88--1.9	5.20383e-006
1.9--1.92	5.001e-006
1.92--1.94	4.82765e-006
1.94--1.96	4.54456e-006
1.96--1.98	4.396e-006
1.98--2	4.17663e-006
2--2.02	4.04619e-006
2.02--2.04	3.89227e-006
2.04--2.06	3.7123e-006
2.06--2.08	3.62787e-006
2.08--2.1	3.41146e-006
2.1--2.12	3.31248e-006
2.12--2.14	3.21087e-006
2.14--2.16	3.07691e-006
2.16--2.18	3.01656e-006
2.18--2.2	2.8116e-006
2.2--2.22	2.7666e-006
2.22--2.24	2.66062e-006
2.24--2.26	2.50821e-006
2.26--2.28	2.43573e-006
2.28--2.3	2.38604e-006
2.3--2.32	2.30208e-006
2.32--2.34	2.22055e-006
2.34--2.36	2.12409e-006
2.36--2.38	2.07663e-006
2.38--2.4	2.02353e-006
2.4--2.42	1.95922e-006
2.42--2.44	1.89922e-006
2.44--2.46	1.83362e-006
2.46--2.48	1.81117e-006
2.48--2.5	1.77118e-006
2.5--2.52	1.7381e-006
2.52--2.54	1.68309e-006
2.54--2.56	1.66625e-006
2.56--2.58	1.63622e-006
2.58--2.6	1.61906e-006
2.6--2.62	1.60482e-006
2.62--2.64	1.59131e-006
2.64--2.66	1.56972e-006
2.66--2.68	1.55731e-006
2.68--2.7	1.54407e-006
2.7--2.72	1.55301e-006
2.72--2.74	1.59258e-006
2.74--2.76	1.60033e-006
2.76--2.78	1.639e-006
2.78--2.8	1.68801e-006
2.8--2.82	1.76314e-006
2.82--2.84	1.84028e-006
2.84--2.86	1.93407e-006
2.86--2.88	2.08071e-006
2.88--2.9	2.23582e-006
2.9--2.92	2.46042e-006
2.92--2.94	2.74266e-006
2.94--2.96	3.19313e-006
2.96--2.98	3.78007e-006
2.98--3	4.92471e-006
3--3.02	6.34631e-006
3.02--3.04	9.70718e-006
3.04--3.06	1.36796e-005
3.06--3.08	1.95073e-005
3.08--3.1	2.48768e-005
3.1--3.12	2.56401e-005
3.12--3.14	2.48057e-005
3.14--3.16	1.89898e-005
3.16--3.18	1.26426e-005
3.18--3.2	8.08715e-006
3.2--3.22	4.19515e-006
3.22--3.24	2.49093e-006
3.24--3.26	1.27741e-006
3.26--3.28	8.18279e-007
3.28--3.3	5.15284e-007
3.3--3.32	3.92389e-007
3.32--3.34	3.06824e-007
3.34--3.36	2.63076e-007
3.36--3.38	2.28677e-007
3.38--3.4	2.05978e-007
3.4--3.42	1.86823e-007
3.42--3.44	1.74626e-007
3.44--3.46	1.64668e-007
3.46--3.48	1.57026e-007
3.48--3.5	1.51239e-007
3.5--3.52	1.48358e-007
3.52--3.54	1.48568e-007
3.54--3.56	1.51219e-007
3.56--3.58	1.61852e-007
3.58--3.6	1.77754e-007
3.6--3.62	2.18589e-007
3.62--3.64	2.68387e-007
3.64--3.66	3.43843e-007
3.66--3.68	4.13674e-007
3.68--3.7	4.20812e-007
3.7--3.72	4.0636e-007
3.72--3.74	3.23997e-007
3.74--3.76	2.34502e-007
3.76--3.78	1.69604e-007
3.78--3.8	1.13886e-007
3.8--3.82	8.81656e-008
3.82--3.84	6.92526e-008
3.84--3.86	6.07456e-008
3.86--3.88	5.2581e-008
3.88--3.9	4.78487e-008
3.9--3.92	4.57954e-008
3.92--3.94	4.38303e-008
3.94--3.96	4.19494e-008
3.96--3.98	4.01493e-008
3.98--4	3.84264e-008
4--4.02	3.67775e-008
4.02--4.04	3.51993e-008
4.04--4.06	3.36889e-008
4.06--4.08	3.22432e-008
4.08--4.1	3.08596e-008
4.1--4.12	2.95354e-008
4.12--4.14	2.82679e-008
4.14--4.16	2.70549e-008
4.16--4.18	2.58939e-008
4.18--4.2	2.47828e-008
4.2--4.22	2.37193e-008
4.22--4.24	2.27015e-008
4.24--4.26	2.17273e-008
4.26--4.28	2.0795e-008
4.28--4.3	1.99026e-008
4.3--4.32	1.90486e-008
4.32--4.34	1.82312e-008
4.34--4.36	1.74488e-008
4.36--4.38	1.67001e-008
4.38--4.4	1.59834e-008
4.4--4.42	1.52976e-008
4.42--4.44	1.46411e-008
4.44--4.46	1.40128e-008
4.46--4.48	1.34115e-008
4.48--4.5	1.2836e-008
4.5--4.52	1.22852e-008
4.52--4.54	1.1758e-008
4.54--4.56	1.12535e-008
4.56--4.58	1.07706e-008
4.58--4.6	1.03084e-008
4.6--4.62	9.86602e-009
4.62--4.64	9.44265e-009
4.64--4.66	9.03745e-009
4.66--4.68	8.64964e-009
4.68--4.7	8.27847e-009
4.7--4.72	7.92323e-009
4.72--4.74	7.58323e-009
4.74--4.76	7.25782e-009
4.76--4.78	6.94637e-009
4.78--4.8	6.64829e-009
4.8--4.82	6.363e-009
4.82--4.84	6.08995e-009
4.84--4.86	5.82862e-009
4.86--4.88	5.57851e-009
4.88--4.9	5.33912e-009
4.9--4.92	5.11001e-009
4.92--4.94	4.89073e-009
4.94--4.96	4.68086e-009
4.96--4.98	4.48e-009
